-0.5	0.5
Integration time [ms]:	1.05
Averaging Nr. [scans]:1
Smoothing Nr. [pixels]:0
Data measured with spectrometer [name]:b'1703276U8'
Wave	;Sample	;Dark	;Reference	;Scope	
[nm]	;[counts]	;[counts]	;[counts]	
 
400,41888427734375;	241,0;	0,0;	0,0
400,4754333496094;	308,5;	0,0;	0,0
400,5319519042969;	519,75;	0,0;	0,0
400,5885009765625;	850,75;	0,0;	0,0
400,6449890136719;	392,25;	0,0;	0,0
400,7015075683594;	293,0;	0,0;	0,0
400,75799560546875;	306,75;	0,0;	0,0
400,8144836425781;	267,25;	0,0;	0,0
400,8709716796875;	226,25;	0,0;	0,0
400,92742919921875;	244,0;	0,0;	0,0
400,98388671875;	272,5;	0,0;	0,0
401,04034423828125;	338,25;	0,0;	0,0
401,09674072265625;	253,5;	0,0;	0,0
401,1531677246094;	271,0;	0,0;	0,0
401,2095947265625;	258,5;	0,0;	0,0
401,2659912109375;	250,75;	0,0;	0,0
401,3223876953125;	258,0;	0,0;	0,0
401,3787841796875;	262,25;	0,0;	0,0
401,4351806640625;	269,0;	0,0;	0,0
401,4915466308594;	328,75;	0,0;	0,0
401,54791259765625;	297,25;	0,0;	0,0
401,604248046875;	241,0;	0,0;	0,0
401,66058349609375;	267,0;	0,0;	0,0
401,7169189453125;	253,5;	0,0;	0,0
401,77325439453125;	311,75;	0,0;	0,0
401,8295593261719;	284,0;	0,0;	0,0
401,8858642578125;	283,0;	0,0;	0,0
401,942138671875;	246,0;	0,0;	0,0
401,9984436035156;	258,75;	0,0;	0,0
402,0547180175781;	237,75;	0,0;	0,0
402,1109619140625;	234,5;	0,0;	0,0
402,1672058105469;	274,0;	0,0;	0,0
402,22344970703125;	374,0;	0,0;	0,0
402,2796936035156;	359,75;	0,0;	0,0
402,3359375;	250,25;	0,0;	0,0
402,39215087890625;	253,25;	0,0;	0,0
402,44830322265625;	269,0;	0,0;	0,0
402,5045166015625;	286,5;	0,0;	0,0
402,5606994628906;	314,75;	0,0;	0,0
402,6168518066406;	251,0;	0,0;	0,0
402,6730041503906;	257,0;	0,0;	0,0
402,7291564941406;	279,0;	0,0;	0,0
402,7853088378906;	237,75;	0,0;	0,0
402,8414611816406;	254,75;	0,0;	0,0
402,8975830078125;	255,0;	0,0;	0,0
402,9537048339844;	277,0;	0,0;	0,0
403,0097961425781;	322,0;	0,0;	0,0
403,0658874511719;	513,75;	0,0;	0,0
403,1219787597656;	899,25;	0,0;	0,0
403,1780700683594;	510,0;	0,0;	0,0
403,234130859375;	342,0;	0,0;	0,0
403,2901916503906;	398,0;	0,0;	0,0
403,34625244140625;	717,25;	0,0;	0,0
403,40228271484375;	506,0;	0,0;	0,0
403,45831298828125;	394,0;	0,0;	0,0
403,51434326171875;	539,5;	0,0;	0,0
403,5703430175781;	319,5;	0,0;	0,0
403,6263122558594;	292,5;	0,0;	0,0
403,68231201171875;	263,0;	0,0;	0,0
403,7383117675781;	258,0;	0,0;	0,0
403,79425048828125;	262,25;	0,0;	0,0
403,8501892089844;	263,75;	0,0;	0,0
403,9061584472656;	249,25;	0,0;	0,0
403,96209716796875;	266,0;	0,0;	0,0
404,0180358886719;	273,0;	0,0;	0,0
404,0739440917969;	291,0;	0,0;	0,0
404,1298828125;	312,75;	0,0;	0,0
404,1857604980469;	344,0;	0,0;	0,0
404,24163818359375;	308,0;	0,0;	0,0
404,2975158691406;	279,0;	0,0;	0,0
404,3533935546875;	329,5;	0,0;	0,0
404,4092712402344;	449,75;	0,0;	0,0
404,4651184082031;	703,0;	0,0;	0,0
404,5209655761719;	819,5;	0,0;	0,0
404,5768127441406;	2014,5;	0,0;	0,0
404,6325988769531;	4468,75;	0,0;	0,0
404,68841552734375;	1805,75;	0,0;	0,0
404,7442321777344;	507,0;	0,0;	0,0
404,8000183105469;	402,25;	0,0;	0,0
404,8558349609375;	302,25;	0,0;	0,0
404,9115905761719;	274,25;	0,0;	0,0
404,96734619140625;	297,25;	0,0;	0,0
405,0231018066406;	280,0;	0,0;	0,0
405,078857421875;	280,0;	0,0;	0,0
405,1345520019531;	277,5;	0,0;	0,0
405,1902770996094;	268,5;	0,0;	0,0
405,2460021972656;	264,0;	0,0;	0,0
405,30169677734375;	267,5;	0,0;	0,0
405,3573913574219;	267,0;	0,0;	0,0
405,4130859375;	255,75;	0,0;	0,0
405,4687805175781;	273,75;	0,0;	0,0
405,5244445800781;	332,0;	0,0;	0,0
405,580078125;	341,25;	0,0;	0,0
405,6357116699219;	304,0;	0,0;	0,0
405,6913757324219;	287,75;	0,0;	0,0
405,74700927734375;	316,75;	0,0;	0,0
405,8025817871094;	393,5;	0,0;	0,0
405,85821533203125;	431,0;	0,0;	0,0
405,913818359375;	319,5;	0,0;	0,0
405,96942138671875;	329,25;	0,0;	0,0
406,02496337890625;	288,25;	0,0;	0,0
406,0805358886719;	292,25;	0,0;	0,0
406,1361083984375;	296,5;	0,0;	0,0
406,191650390625;	332,75;	0,0;	0,0
406,2471618652344;	421,5;	0,0;	0,0
406,3027038574219;	738,5;	0,0;	0,0
406,3582458496094;	1717,0;	0,0;	0,0
406,4137268066406;	3570,25;	0,0;	0,0
406,4692077636719;	1340,75;	0,0;	0,0
406,5246887207031;	338,75;	0,0;	0,0
406,5802001953125;	303,25;	0,0;	0,0
406,6356506347656;	299,0;	0,0;	0,0
406,69110107421875;	316,5;	0,0;	0,0
406,74658203125;	433,75;	0,0;	0,0
406,8019714355469;	469,25;	0,0;	0,0
406,857421875;	452,0;	0,0;	0,0
406,912841796875;	310,0;	0,0;	0,0
406,96826171875;	275,25;	0,0;	0,0
407,0236511230469;	309,25;	0,0;	0,0
407,0790710449219;	379,0;	0,0;	0,0
407,1344299316406;	815,5;	0,0;	0,0
407,1897888183594;	2178,0;	0,0;	0,0
407,24517822265625;	3228,5;	0,0;	0,0
407,3005065917969;	648,0;	0,0;	0,0
407,3558654785156;	301,0;	0,0;	0,0
407,4111633300781;	340,25;	0,0;	0,0
407,46649169921875;	335,0;	0,0;	0,0
407,5218200683594;	360,75;	0,0;	0,0
407,5771179199219;	319,0;	0,0;	0,0
407,6324157714844;	321,0;	0,0;	0,0
407,68768310546875;	421,5;	0,0;	0,0
407,7429504394531;	443,0;	0,0;	0,0
407,7981872558594;	364,75;	0,0;	0,0
407,85345458984375;	357,0;	0,0;	0,0
407,9086608886719;	341,5;	0,0;	0,0
407,96392822265625;	287,25;	0,0;	0,0
408,0191650390625;	336,5;	0,0;	0,0
408,0743408203125;	306,25;	0,0;	0,0
408,12957763671875;	304,0;	0,0;	0,0
408,18475341796875;	288,75;	0,0;	0,0
408,23992919921875;	285,5;	0,0;	0,0
408,29510498046875;	256,75;	0,0;	0,0
408,35028076171875;	323,0;	0,0;	0,0
408,4054260253906;	314,5;	0,0;	0,0
408,4605712890625;	350,25;	0,0;	0,0
408,51568603515625;	446,25;	0,0;	0,0
408,57080078125;	411,75;	0,0;	0,0
408,6259460449219;	331,0;	0,0;	0,0
408,6810302734375;	285,75;	0,0;	0,0
408,73614501953125;	288,0;	0,0;	0,0
408,79119873046875;	271,5;	0,0;	0,0
408,8462829589844;	237,75;	0,0;	0,0
408,9013366699219;	275,5;	0,0;	0,0
408,9563903808594;	267,75;	0,0;	0,0
409,0114440917969;	248,0;	0,0;	0,0
409,0664367675781;	257,25;	0,0;	0,0
409,1214904785156;	281,25;	0,0;	0,0
409,1764831542969;	272,25;	0,0;	0,0
409,2314758300781;	278,25;	0,0;	0,0
409,2864990234375;	284,0;	0,0;	0,0
409,3414611816406;	290,5;	0,0;	0,0
409,39642333984375;	273,5;	0,0;	0,0
409,451416015625;	272,0;	0,0;	0,0
409,50634765625;	270,0;	0,0;	0,0
409,5613098144531;	301,0;	0,0;	0,0
409,6162414550781;	301,75;	0,0;	0,0
409,6711730957031;	337,25;	0,0;	0,0
409,72607421875;	302,5;	0,0;	0,0
409,781005859375;	304,5;	0,0;	0,0
409,83587646484375;	329,5;	0,0;	0,0
409,8907470703125;	358,25;	0,0;	0,0
409,94561767578125;	292,0;	0,0;	0,0
410,0005187988281;	268,25;	0,0;	0,0
410,05535888671875;	302,75;	0,0;	0,0
410,1101989746094;	307,25;	0,0;	0,0
410,1650390625;	310,5;	0,0;	0,0
410,2198486328125;	292,0;	0,0;	0,0
410,2746887207031;	270,0;	0,0;	0,0
410,3294677734375;	259,25;	0,0;	0,0
410,3842468261719;	271,5;	0,0;	0,0
410,43902587890625;	304,75;	0,0;	0,0
410,4938049316406;	303,5;	0,0;	0,0
410,548583984375;	292,0;	0,0;	0,0
410,60333251953125;	280,0;	0,0;	0,0
410,6580810546875;	296,75;	0,0;	0,0
410,7127990722656;	297,25;	0,0;	0,0
410,7675476074219;	416,25;	0,0;	0,0
410,8222351074219;	435,0;	0,0;	0,0
410,876953125;	319,5;	0,0;	0,0
410,931640625;	283,25;	0,0;	0,0
410,986328125;	360,5;	0,0;	0,0
411,041015625;	412,0;	0,0;	0,0
411,095703125;	284,0;	0,0;	0,0
411,15032958984375;	297,25;	0,0;	0,0
411,2049865722656;	267,0;	0,0;	0,0
411,2596130371094;	281,25;	0,0;	0,0
411,3142395019531;	277,5;	0,0;	0,0
411,3688659667969;	315,0;	0,0;	0,0
411,4234619140625;	316,0;	0,0;	0,0
411,4780578613281;	339,5;	0,0;	0,0
411,53265380859375;	320,0;	0,0;	0,0
411,58721923828125;	279,25;	0,0;	0,0
411,64178466796875;	264,0;	0,0;	0,0
411,6963195800781;	250,0;	0,0;	0,0
411,7508544921875;	270,25;	0,0;	0,0
411,805419921875;	312,0;	0,0;	0,0
411,8598937988281;	506,5;	0,0;	0,0
411,9144287109375;	846,5;	0,0;	0,0
411,96893310546875;	425,5;	0,0;	0,0
412,0234375;	292,0;	0,0;	0,0
412,0779113769531;	321,0;	0,0;	0,0
412,13238525390625;	272,75;	0,0;	0,0
412,1868591308594;	304,25;	0,0;	0,0
412,2413330078125;	349,25;	0,0;	0,0
412,2957458496094;	324,5;	0,0;	0,0
412,3501892089844;	316,0;	0,0;	0,0
412,4046325683594;	289,75;	0,0;	0,0
412,45904541015625;	294,5;	0,0;	0,0
412,5134582519531;	286,0;	0,0;	0,0
412,56781005859375;	286,75;	0,0;	0,0
412,6222229003906;	326,5;	0,0;	0,0
412,6766052246094;	332,75;	0,0;	0,0
412,73095703125;	306,75;	0,0;	0,0
412,7853088378906;	382,5;	0,0;	0,0
412,83966064453125;	397,25;	0,0;	0,0
412,8940124511719;	300,75;	0,0;	0,0
412,94830322265625;	274,75;	0,0;	0,0
413,0025939941406;	266,75;	0,0;	0,0
413,0569152832031;	291,25;	0,0;	0,0
413,1112060546875;	342,0;	0,0;	0,0
413,1654968261719;	515,25;	0,0;	0,0
413,2197570800781;	1267,25;	0,0;	0,0
413,2740173339844;	1927,25;	0,0;	0,0
413,3282775878906;	601,5;	0,0;	0,0
413,3825378417969;	397,5;	0,0;	0,0
413,436767578125;	382,5;	0,0;	0,0
413,4909973144531;	553,5;	0,0;	0,0
413,5451965332031;	582,5;	0,0;	0,0
413,5993957519531;	298,25;	0,0;	0,0
413,65362548828125;	268,75;	0,0;	0,0
413,7077941894531;	342,75;	0,0;	0,0
413,761962890625;	418,75;	0,0;	0,0
413,8161315917969;	298,75;	0,0;	0,0
413,87030029296875;	277,0;	0,0;	0,0
413,9244079589844;	269,75;	0,0;	0,0
413,97857666015625;	283,75;	0,0;	0,0
414,0326843261719;	269,25;	0,0;	0,0
414,0867919921875;	279,75;	0,0;	0,0
414,1408996582031;	280,5;	0,0;	0,0
414,1949462890625;	293,25;	0,0;	0,0
414,2490539550781;	330,25;	0,0;	0,0
414,3031311035156;	450,0;	0,0;	0,0
414,357177734375;	1053,25;	0,0;	0,0
414,4112548828125;	2412,75;	0,0;	0,0
414,46527099609375;	2265,5;	0,0;	0,0
414,5193176269531;	433,0;	0,0;	0,0
414,5733337402344;	306,0;	0,0;	0,0
414,6273498535156;	316,0;	0,0;	0,0
414,6813659667969;	300,75;	0,0;	0,0
414,7353515625;	302,75;	0,0;	0,0
414,7893371582031;	383,0;	0,0;	0,0
414,8432922363281;	384,5;	0,0;	0,0
414,89727783203125;	280,5;	0,0;	0,0
414,95123291015625;	341,25;	0,0;	0,0
415,0051574707031;	362,75;	0,0;	0,0
415,05908203125;	312,0;	0,0;	0,0
415,1130065917969;	295,75;	0,0;	0,0
415,16693115234375;	308,75;	0,0;	0,0
415,2208251953125;	303,5;	0,0;	0,0
415,27471923828125;	345,75;	0,0;	0,0
415,32861328125;	334,5;	0,0;	0,0
415,3824768066406;	432,75;	0,0;	0,0
415,43634033203125;	589,25;	0,0;	0,0
415,49017333984375;	781,25;	0,0;	0,0
415,54400634765625;	648,75;	0,0;	0,0
415,59783935546875;	366,25;	0,0;	0,0
415,65167236328125;	390,25;	0,0;	0,0
415,7054748535156;	523,5;	0,0;	0,0
415,75927734375;	590,0;	0,0;	0,0
415,81304931640625;	399,25;	0,0;	0,0
415,8668518066406;	442,0;	0,0;	0,0
415,9206237792969;	402,0;	0,0;	0,0
415,974365234375;	310,75;	0,0;	0,0
416,02813720703125;	293,5;	0,0;	0,0
416,0818786621094;	292,5;	0,0;	0,0
416,1355895996094;	292,5;	0,0;	0,0
416,1893005371094;	279,5;	0,0;	0,0
416,2430114746094;	273,25;	0,0;	0,0
416,2967224121094;	285,25;	0,0;	0,0
416,35040283203125;	274,75;	0,0;	0,0
416,4040832519531;	293,25;	0,0;	0,0
416,457763671875;	266,75;	0,0;	0,0
416,51141357421875;	275,5;	0,0;	0,0
416,5650634765625;	301,5;	0,0;	0,0
416,6186828613281;	290,25;	0,0;	0,0
416,6723327636719;	262,0;	0,0;	0,0
416,7259521484375;	286,75;	0,0;	0,0
416,779541015625;	266,75;	0,0;	0,0
416,8331298828125;	302,75;	0,0;	0,0
416,88671875;	294,5;	0,0;	0,0
416,9403076171875;	273,5;	0,0;	0,0
416,99383544921875;	293,75;	0,0;	0,0
417,04742431640625;	281,25;	0,0;	0,0
417,1009826660156;	332,75;	0,0;	0,0
417,15447998046875;	382,25;	0,0;	0,0
417,2080383300781;	365,25;	0,0;	0,0
417,2615661621094;	436,25;	0,0;	0,0
417,3150329589844;	417,5;	0,0;	0,0
417,3685607910156;	353,75;	0,0;	0,0
417,4220275878906;	325,0;	0,0;	0,0
417,47552490234375;	320,0;	0,0;	0,0
417,5289611816406;	388,5;	0,0;	0,0
417,5824279785156;	473,75;	0,0;	0,0
417,6358642578125;	565,25;	0,0;	0,0
417,6893310546875;	397,5;	0,0;	0,0
417,74273681640625;	364,0;	0,0;	0,0
417,7961730957031;	331,25;	0,0;	0,0
417,84954833984375;	339,25;	0,0;	0,0
417,9029541015625;	304,5;	0,0;	0,0
417,9563293457031;	304,25;	0,0;	0,0
418,0096740722656;	296,0;	0,0;	0,0
418,0630798339844;	311,5;	0,0;	0,0
418,11639404296875;	364,5;	0,0;	0,0
418,1697692871094;	556,75;	0,0;	0,0
418,22308349609375;	993,0;	0,0;	0,0
418,2763977050781;	637,5;	0,0;	0,0
418,3297119140625;	337,25;	0,0;	0,0
418,3830261230469;	307,75;	0,0;	0,0
418,4363098144531;	301,25;	0,0;	0,0
418,4895935058594;	337,0;	0,0;	0,0
418,5428466796875;	521,25;	0,0;	0,0
418,59613037109375;	368,5;	0,0;	0,0
418,6493835449219;	374,25;	0,0;	0,0
418,70263671875;	608,5;	0,0;	0,0
418,755859375;	1236,0;	0,0;	0,0
418,80908203125;	1213,5;	0,0;	0,0
418,8622741699219;	943,75;	0,0;	0,0
418,9154968261719;	366,0;	0,0;	0,0
418,96868896484375;	324,75;	0,0;	0,0
419,0218811035156;	304,0;	0,0;	0,0
419,0750427246094;	345,25;	0,0;	0,0
419,1282043457031;	394,75;	0,0;	0,0
419,18133544921875;	785,5;	0,0;	0,0
419,2344970703125;	647,75;	0,0;	0,0
419,2876281738281;	316,0;	0,0;	0,0
419,3406982421875;	289,0;	0,0;	0,0
419,3938293457031;	271,25;	0,0;	0,0
419,4469299316406;	288,75;	0,0;	0,0
419,4999694824219;	304,25;	0,0;	0,0
419,5530700683594;	402,0;	0,0;	0,0
419,60614013671875;	502,0;	0,0;	0,0
419,6592102050781;	399,5;	0,0;	0,0
419,7122497558594;	387,25;	0,0;	0,0
419,7652893066406;	363,0;	0,0;	0,0
419,8183288574219;	549,5;	0,0;	0,0
419,8713073730469;	1223,0;	0,0;	0,0
419,9243469238281;	1491,25;	0,0;	0,0
419,9773254394531;	1554,0;	0,0;	0,0
420,03033447265625;	457,5;	0,0;	0,0
420,0832824707031;	355,75;	0,0;	0,0
420,1362609863281;	493,5;	0,0;	0,0
420,1892395019531;	877,0;	0,0;	0,0
420,2421569824219;	2264,5;	0,0;	0,0
420,29510498046875;	1314,75;	0,0;	0,0
420,3480529785156;	372,25;	0,0;	0,0
420,40093994140625;	375,25;	0,0;	0,0
420,453857421875;	488,0;	0,0;	0,0
420,5067138671875;	349,25;	0,0;	0,0
420,5596008300781;	301,25;	0,0;	0,0
420,6124572753906;	306,0;	0,0;	0,0
420,66534423828125;	282,5;	0,0;	0,0
420,7181701660156;	333,5;	0,0;	0,0
420,7710266113281;	327,0;	0,0;	0,0
420,8238525390625;	295,0;	0,0;	0,0
420,8766784667969;	299,5;	0,0;	0,0
420,9294738769531;	344,75;	0,0;	0,0
420,9822998046875;	307,75;	0,0;	0,0
421,03509521484375;	409,5;	0,0;	0,0
421,0878601074219;	645,5;	0,0;	0,0
421,1406555175781;	392,25;	0,0;	0,0
421,1933898925781;	273,25;	0,0;	0,0
421,24615478515625;	268,25;	0,0;	0,0
421,2988586425781;	264,25;	0,0;	0,0
421,35162353515625;	296,25;	0,0;	0,0
421,4043273925781;	348,5;	0,0;	0,0
421,45703125;	307,5;	0,0;	0,0
421,5097351074219;	304,5;	0,0;	0,0
421,56243896484375;	353,0;	0,0;	0,0
421,6151123046875;	424,0;	0,0;	0,0
421,66778564453125;	445,75;	0,0;	0,0
421,7204284667969;	331,75;	0,0;	0,0
421,7730712890625;	395,75;	0,0;	0,0
421,8257141113281;	419,0;	0,0;	0,0
421,8783264160156;	354,0;	0,0;	0,0
421,9309387207031;	432,75;	0,0;	0,0
421,9835205078125;	750,25;	0,0;	0,0
422,0361328125;	469,75;	0,0;	0,0
422,0887145996094;	355,0;	0,0;	0,0
422,14129638671875;	307,0;	0,0;	0,0
422,19384765625;	348,75;	0,0;	0,0
422,2464294433594;	554,5;	0,0;	0,0
422,2989501953125;	554,25;	0,0;	0,0
422,35150146484375;	365,0;	0,0;	0,0
422,4040222167969;	429,0;	0,0;	0,0
422,45654296875;	587,75;	0,0;	0,0
422,509033203125;	618,75;	0,0;	0,0
422,5615234375;	737,0;	0,0;	0,0
422,614013671875;	1507,0;	0,0;	0,0
422,66650390625;	3338,0;	0,0;	0,0
422,71893310546875;	7252,25;	0,0;	0,0
422,7713928222656;	4054,25;	0,0;	0,0
422,8238525390625;	1531,5;	0,0;	0,0
422,8762512207031;	634,0;	0,0;	0,0
422,9286804199219;	450,0;	0,0;	0,0
422,9811096191406;	365,0;	0,0;	0,0
423,0334777832031;	334,0;	0,0;	0,0
423,08587646484375;	321,75;	0,0;	0,0
423,1382141113281;	297,5;	0,0;	0,0
423,19061279296875;	312,0;	0,0;	0,0
423,24298095703125;	316,0;	0,0;	0,0
423,2953186035156;	334,5;	0,0;	0,0
423,3476257324219;	522,75;	0,0;	0,0
423,3999938964844;	905,25;	0,0;	0,0
423,4522705078125;	649,5;	0,0;	0,0
423,5046081542969;	384,0;	0,0;	0,0
423,556884765625;	493,25;	0,0;	0,0
423,60919189453125;	1056,25;	0,0;	0,0
423,6614685058594;	1521,0;	0,0;	0,0
423,7137145996094;	483,75;	0,0;	0,0
423,7659912109375;	352,0;	0,0;	0,0
423,8182373046875;	367,0;	0,0;	0,0
423,8704528808594;	480,5;	0,0;	0,0
423,92266845703125;	537,5;	0,0;	0,0
423,9748840332031;	512,25;	0,0;	0,0
424,027099609375;	431,5;	0,0;	0,0
424,07928466796875;	332,5;	0,0;	0,0
424,1314697265625;	287,25;	0,0;	0,0
424,18365478515625;	284,75;	0,0;	0,0
424,2358093261719;	275,0;	0,0;	0,0
424,2879333496094;	291,25;	0,0;	0,0
424,340087890625;	302,75;	0,0;	0,0
424,3921813964844;	279,0;	0,0;	0,0
424,4443054199219;	296,75;	0,0;	0,0
424,4964294433594;	293,0;	0,0;	0,0
424,54852294921875;	320,5;	0,0;	0,0
424,6006164550781;	363,75;	0,0;	0,0
424,6526794433594;	327,0;	0,0;	0,0
424,70477294921875;	334,75;	0,0;	0,0
424,7568359375;	468,0;	0,0;	0,0
424,8088684082031;	573,75;	0,0;	0,0
424,8609313964844;	402,25;	0,0;	0,0
424,9129333496094;	363,5;	0,0;	0,0
424,9649353027344;	460,75;	0,0;	0,0
425,0169677734375;	910,5;	0,0;	0,0
425,0689697265625;	1889,25;	0,0;	0,0
425,1209411621094;	2327,5;	0,0;	0,0
425,17291259765625;	1069,75;	0,0;	0,0
425,2248840332031;	315,75;	0,0;	0,0
425,2768249511719;	300,75;	0,0;	0,0
425,3287658691406;	285,5;	0,0;	0,0
425,3807067871094;	309,25;	0,0;	0,0
425,4326171875;	370,75;	0,0;	0,0
425,48455810546875;	564,75;	0,0;	0,0
425,53643798828125;	333,75;	0,0;	0,0
425,58831787109375;	296,25;	0,0;	0,0
425,6401672363281;	313,0;	0,0;	0,0
425,69207763671875;	278,25;	0,0;	0,0
425,7439270019531;	276,75;	0,0;	0,0
425,7957763671875;	278,75;	0,0;	0,0
425,8476257324219;	308,5;	0,0;	0,0
425,8994445800781;	331,0;	0,0;	0,0
425,9512634277344;	404,0;	0,0;	0,0
426,0030822753906;	681,25;	0,0;	0,0
426,05487060546875;	1621,25;	0,0;	0,0
426,1066589355469;	3070,75;	0,0;	0,0
426,158447265625;	865,0;	0,0;	0,0
426,210205078125;	389,0;	0,0;	0,0
426,261962890625;	296,5;	0,0;	0,0
426,3136901855469;	263,5;	0,0;	0,0
426,3654479980469;	284,25;	0,0;	0,0
426,41717529296875;	299,5;	0,0;	0,0
426,4688720703125;	286,5;	0,0;	0,0
426,5205993652344;	289,25;	0,0;	0,0
426,572265625;	278,75;	0,0;	0,0
426,62396240234375;	293,5;	0,0;	0,0
426,6756286621094;	278,25;	0,0;	0,0
426,727294921875;	296,25;	0,0;	0,0
426,7789306640625;	295,0;	0,0;	0,0
426,83056640625;	348,25;	0,0;	0,0
426,8822021484375;	311,25;	0,0;	0,0
426,93377685546875;	320,0;	0,0;	0,0
426,98541259765625;	319,0;	0,0;	0,0
427,0370178222656;	400,0;	0,0;	0,0
427,0885925292969;	784,0;	0,0;	0,0
427,14019775390625;	1921,0;	0,0;	0,0
427,1917419433594;	3821,5;	0,0;	0,0
427,2433166503906;	4201,0;	0,0;	0,0
427,29486083984375;	662,5;	0,0;	0,0
427,34637451171875;	371,5;	0,0;	0,0
427,3979187011719;	290,5;	0,0;	0,0
427,4494323730469;	343,25;	0,0;	0,0
427,50091552734375;	412,5;	0,0;	0,0
427,55242919921875;	428,75;	0,0;	0,0
427,6039123535156;	288,75;	0,0;	0,0
427,6553955078125;	265,75;	0,0;	0,0
427,70684814453125;	287,5;	0,0;	0,0
427,75830078125;	260,75;	0,0;	0,0
427,80975341796875;	276,75;	0,0;	0,0
427,8612060546875;	271,25;	0,0;	0,0
427,91259765625;	280,25;	0,0;	0,0
427,9639587402344;	250,75;	0,0;	0,0
428,0154113769531;	281,75;	0,0;	0,0
428,0667724609375;	293,75;	0,0;	0,0
428,1181335449219;	283,5;	0,0;	0,0
428,1695251464844;	326,5;	0,0;	0,0
428,22088623046875;	460,75;	0,0;	0,0
428,272216796875;	946,75;	0,0;	0,0
428,32354736328125;	901,25;	0,0;	0,0
428,3748779296875;	533,75;	0,0;	0,0
428,42620849609375;	289,25;	0,0;	0,0
428,4775390625;	260,75;	0,0;	0,0
428,5288391113281;	285,25;	0,0;	0,0
428,5801086425781;	313,0;	0,0;	0,0
428,6313781738281;	285,75;	0,0;	0,0
428,6826477050781;	253,5;	0,0;	0,0
428,7339172363281;	277,25;	0,0;	0,0
428,78515625;	297,5;	0,0;	0,0
428,83636474609375;	284,5;	0,0;	0,0
428,8875732421875;	333,75;	0,0;	0,0
428,93878173828125;	456,75;	0,0;	0,0
428,989990234375;	657,0;	0,0;	0,0
429,04119873046875;	433,25;	0,0;	0,0
429,0923767089844;	297,75;	0,0;	0,0
429,1435241699219;	277,25;	0,0;	0,0
429,1947021484375;	310,25;	0,0;	0,0
429,2458190917969;	276,5;	0,0;	0,0
429,29693603515625;	285,5;	0,0;	0,0
429,34808349609375;	340,75;	0,0;	0,0
429,3992004394531;	582,5;	0,0;	0,0
429,4503173828125;	1288,0;	0,0;	0,0
429,50140380859375;	737,75;	0,0;	0,0
429,552490234375;	295,25;	0,0;	0,0
429,60357666015625;	254,25;	0,0;	0,0
429,6546325683594;	265,25;	0,0;	0,0
429,7056884765625;	289,5;	0,0;	0,0
429,7567138671875;	293,75;	0,0;	0,0
429,8077697753906;	321,0;	0,0;	0,0
429,8587951660156;	450,5;	0,0;	0,0
429,9097900390625;	710,5;	0,0;	0,0
429,9608154296875;	1340,75;	0,0;	0,0
430,01177978515625;	804,25;	0,0;	0,0
430,0627746582031;	354,5;	0,0;	0,0
430,1137390136719;	321,25;	0,0;	0,0
430,1646728515625;	340,25;	0,0;	0,0
430,2156677246094;	441,75;	0,0;	0,0
430,2666015625;	828,5;	0,0;	0,0
430,3175048828125;	976,75;	0,0;	0,0
430,3684387207031;	346,5;	0,0;	0,0
430,4193115234375;	289,0;	0,0;	0,0
430,4701843261719;	277,25;	0,0;	0,0
430,5210876464844;	322,75;	0,0;	0,0
430,57196044921875;	355,25;	0,0;	0,0
430,6228332519531;	383,75;	0,0;	0,0
430,6736755371094;	435,0;	0,0;	0,0
430,7245178222656;	741,5;	0,0;	0,0
430,77532958984375;	1804,25;	0,0;	0,0
430,826171875;	4617,0;	0,0;	0,0
430,8769836425781;	2313,25;	0,0;	0,0
430,92779541015625;	471,5;	0,0;	0,0
430,97857666015625;	432,75;	0,0;	0,0
431,0293273925781;	313,5;	0,0;	0,0
431,0801086425781;	288,0;	0,0;	0,0
431,1308898925781;	288,0;	0,0;	0,0
431,1816101074219;	277,75;	0,0;	0,0
431,23236083984375;	276,25;	0,0;	0,0
431,2830810546875;	247,75;	0,0;	0,0
431,33380126953125;	264,5;	0,0;	0,0
431,3844909667969;	270,0;	0,0;	0,0
431,4352111816406;	302,25;	0,0;	0,0
431,4858703613281;	378,5;	0,0;	0,0
431,53656005859375;	672,25;	0,0;	0,0
431,5871887207031;	544,25;	0,0;	0,0
431,63787841796875;	281,5;	0,0;	0,0
431,6885070800781;	265,5;	0,0;	0,0
431,7391052246094;	279,25;	0,0;	0,0
431,78973388671875;	287,0;	0,0;	0,0
431,84033203125;	368,0;	0,0;	0,0
431,8909606933594;	566,25;	0,0;	0,0
431,9415283203125;	451,75;	0,0;	0,0
431,99212646484375;	284,0;	0,0;	0,0
432,0426940917969;	271,0;	0,0;	0,0
432,0932312011719;	277,0;	0,0;	0,0
432,1437683105469;	272,0;	0,0;	0,0
432,1943054199219;	298,25;	0,0;	0,0
432,2448425292969;	279,0;	0,0;	0,0
432,29534912109375;	274,5;	0,0;	0,0
432,3458557128906;	291,5;	0,0;	0,0
432,3963623046875;	325,0;	0,0;	0,0
432,44683837890625;	392,5;	0,0;	0,0
432,497314453125;	598,5;	0,0;	0,0
432,5477600097656;	1355,25;	0,0;	0,0
432,59820556640625;	3836,75;	0,0;	0,0
432,6486511230469;	3299,5;	0,0;	0,0
432,6990966796875;	518,75;	0,0;	0,0
432,74951171875;	373,75;	0,0;	0,0
432,7999267578125;	321,0;	0,0;	0,0
432,8503112792969;	276,75;	0,0;	0,0
432,9006652832031;	284,25;	0,0;	0,0
432,9510498046875;	275,25;	0,0;	0,0
433,00140380859375;	255,75;	0,0;	0,0
433,0517883300781;	244,0;	0,0;	0,0
433,10211181640625;	280,75;	0,0;	0,0
433,1524658203125;	273,5;	0,0;	0,0
433,2027587890625;	246,0;	0,0;	0,0
433,2530822753906;	276,75;	0,0;	0,0
433,30340576171875;	274,5;	0,0;	0,0
433,3536682128906;	244,75;	0,0;	0,0
433,4039611816406;	265,25;	0,0;	0,0
433,4542541503906;	247,0;	0,0;	0,0
433,5044860839844;	264,75;	0,0;	0,0
433,55474853515625;	263,75;	0,0;	0,0
433,60498046875;	277,75;	0,0;	0,0
433,6551818847656;	316,5;	0,0;	0,0
433,7054138183594;	391,5;	0,0;	0,0
433,755615234375;	575,75;	0,0;	0,0
433,8058166503906;	292,25;	0,0;	0,0
433,8559875488281;	278,75;	0,0;	0,0
433,9061584472656;	254,25;	0,0;	0,0
433,9563293457031;	273,75;	0,0;	0,0
434,0064697265625;	278,25;	0,0;	0,0
434,056640625;	243,5;	0,0;	0,0
434,10675048828125;	265,75;	0,0;	0,0
434,1568603515625;	280,5;	0,0;	0,0
434,20697021484375;	245,25;	0,0;	0,0
434,2570495605469;	266,5;	0,0;	0,0
434,3071594238281;	282,75;	0,0;	0,0
434,35723876953125;	270,75;	0,0;	0,0
434,40728759765625;	295,75;	0,0;	0,0
434,4573669433594;	279,0;	0,0;	0,0
434,50738525390625;	255,25;	0,0;	0,0
434,55743408203125;	269,25;	0,0;	0,0
434,6074523925781;	251,75;	0,0;	0,0
434,657470703125;	276,25;	0,0;	0,0
434,70745849609375;	277,0;	0,0;	0,0
434,7574768066406;	261,5;	0,0;	0,0
434,8074645996094;	275,5;	0,0;	0,0
434,857421875;	276,75;	0,0;	0,0
434,90740966796875;	268,0;	0,0;	0,0
434,95733642578125;	291,5;	0,0;	0,0
435,00726318359375;	258,25;	0,0;	0,0
435,05718994140625;	266,25;	0,0;	0,0
435,1071472167969;	272,25;	0,0;	0,0
435,1570129394531;	308,0;	0,0;	0,0
435,2069396972656;	294,75;	0,0;	0,0
435,25677490234375;	341,0;	0,0;	0,0
435,3066711425781;	468,0;	0,0;	0,0
435,35650634765625;	354,5;	0,0;	0,0
435,4063720703125;	272,5;	0,0;	0,0
435,4562072753906;	281,25;	0,0;	0,0
435,50604248046875;	262,5;	0,0;	0,0
435,5558776855469;	265,0;	0,0;	0,0
435,60565185546875;	273,25;	0,0;	0,0
435,65545654296875;	263,25;	0,0;	0,0
435,70526123046875;	263,0;	0,0;	0,0
435,75506591796875;	279,75;	0,0;	0,0
435,8048095703125;	258,5;	0,0;	0,0
435,85455322265625;	279,5;	0,0;	0,0
435,9043273925781;	281,0;	0,0;	0,0
435,95404052734375;	251,0;	0,0;	0,0
436,0037841796875;	278,25;	0,0;	0,0
436,053466796875;	262,75;	0,0;	0,0
436,1031799316406;	268,25;	0,0;	0,0
436,1528625488281;	269,5;	0,0;	0,0
436,20257568359375;	274,0;	0,0;	0,0
436,2522277832031;	265,5;	0,0;	0,0
436,3019104003906;	256,25;	0,0;	0,0
436,3515625;	245,5;	0,0;	0,0
436,4011535644531;	265,75;	0,0;	0,0
436,4508056640625;	252,5;	0,0;	0,0
436,50042724609375;	276,25;	0,0;	0,0
436,5500183105469;	257,5;	0,0;	0,0
436,599609375;	256,75;	0,0;	0,0
436,6492004394531;	267,25;	0,0;	0,0
436,6987609863281;	247,75;	0,0;	0,0
436,7483215332031;	272,0;	0,0;	0,0
436,7978820800781;	342,75;	0,0;	0,0
436,847412109375;	299,25;	0,0;	0,0
436,8969421386719;	278,0;	0,0;	0,0
436,94647216796875;	296,25;	0,0;	0,0
436,9959716796875;	343,0;	0,0;	0,0
437,0455017089844;	367,25;	0,0;	0,0
437,094970703125;	244,0;	0,0;	0,0
437,1444396972656;	261,0;	0,0;	0,0
437,19390869140625;	247,5;	0,0;	0,0
437,2433776855469;	253,0;	0,0;	0,0
437,2928161621094;	248,0;	0,0;	0,0
437,3422546386719;	257,0;	0,0;	0,0
437,3916931152344;	268,0;	0,0;	0,0
437,4410705566406;	264,25;	0,0;	0,0
437,4905090332031;	248,5;	0,0;	0,0
437,53985595703125;	320,0;	0,0;	0,0
437,5892639160156;	385,0;	0,0;	0,0
437,63861083984375;	580,5;	0,0;	0,0
437,6879577636719;	313,5;	0,0;	0,0
437,7373046875;	260,75;	0,0;	0,0
437,7866516113281;	252,5;	0,0;	0,0
437,8359680175781;	268,0;	0,0;	0,0
437,8852844238281;	251,25;	0,0;	0,0
437,9346008300781;	289,25;	0,0;	0,0
437,98388671875;	283,75;	0,0;	0,0
438,0331726074219;	283,25;	0,0;	0,0
438,0824279785156;	312,5;	0,0;	0,0
438,1317138671875;	294,5;	0,0;	0,0
438,1809387207031;	370,5;	0,0;	0,0
438,2301940917969;	509,75;	0,0;	0,0
438,2794189453125;	933,0;	0,0;	0,0
438,3286437988281;	2142,75;	0,0;	0,0
438,37786865234375;	5724,75;	0,0;	0,0
438,42706298828125;	3700,25;	0,0;	0,0
438,4762268066406;	603,75;	0,0;	0,0
438,525390625;	382,5;	0,0;	0,0
438,5745849609375;	315,25;	0,0;	0,0
438,62371826171875;	296,75;	0,0;	0,0
438,6728210449219;	275,5;	0,0;	0,0
438,7220153808594;	278,75;	0,0;	0,0
438,7710876464844;	281,25;	0,0;	0,0
438,8202209472656;	362,0;	0,0;	0,0
438,8692932128906;	337,75;	0,0;	0,0
438,91839599609375;	325,25;	0,0;	0,0
438,96746826171875;	272,25;	0,0;	0,0
439,01654052734375;	257,0;	0,0;	0,0
439,0655822753906;	278,0;	0,0;	0,0
439,1146240234375;	267,75;	0,0;	0,0
439,1636962890625;	277,0;	0,0;	0,0
439,21270751953125;	265,5;	0,0;	0,0
439,26171875;	259,0;	0,0;	0,0
439,3106994628906;	256,5;	0,0;	0,0
439,3597106933594;	259,25;	0,0;	0,0
439,4086608886719;	264,5;	0,0;	0,0
439,4576416015625;	245,75;	0,0;	0,0
439,506591796875;	257,5;	0,0;	0,0
439,5555419921875;	284,75;	0,0;	0,0
439,6044921875;	255,5;	0,0;	0,0
439,6534118652344;	245,75;	0,0;	0,0
439,70233154296875;	273,75;	0,0;	0,0
439,7512512207031;	252,75;	0,0;	0,0
439,8001403808594;	251,25;	0,0;	0,0
439,8489990234375;	246,25;	0,0;	0,0
439,8978576660156;	257,25;	0,0;	0,0
439,94677734375;	254,75;	0,0;	0,0
439,9955749511719;	274,75;	0,0;	0,0
440,0444030761719;	271,5;	0,0;	0,0
440,0932312011719;	294,0;	0,0;	0,0
440,1420593261719;	287,5;	0,0;	0,0
440,19085693359375;	299,25;	0,0;	0,0
440,2396545410156;	280,75;	0,0;	0,0
440,2884521484375;	314,25;	0,0;	0,0
440,3372497558594;	341,0;	0,0;	0,0
440,385986328125;	609,25;	0,0;	0,0
440,4347229003906;	1225,0;	0,0;	0,0
440,48345947265625;	3006,25;	0,0;	0,0
440,5322265625;	3385,5;	0,0;	0,0
440,5809326171875;	553,0;	0,0;	0,0
440,629638671875;	354,5;	0,0;	0,0
440,6783447265625;	266,5;	0,0;	0,0
440,7270202636719;	302,5;	0,0;	0,0
440,77569580078125;	326,75;	0,0;	0,0
440,8243713378906;	344,5;	0,0;	0,0
440,8730163574219;	357,25;	0,0;	0,0
440,9216613769531;	295,25;	0,0;	0,0
440,9703063964844;	246,25;	0,0;	0,0
441,0188903808594;	258,25;	0,0;	0,0
441,0675354003906;	252,25;	0,0;	0,0
441,1160888671875;	258,0;	0,0;	0,0
441,1647033691406;	238,0;	0,0;	0,0
441,2132568359375;	276,5;	0,0;	0,0
441,2618408203125;	258,0;	0,0;	0,0
441,3103942871094;	272,0;	0,0;	0,0
441,35894775390625;	305,0;	0,0;	0,0
441,4075012207031;	385,5;	0,0;	0,0
441,45599365234375;	597,25;	0,0;	0,0
441,5044860839844;	1250,5;	0,0;	0,0
441,5530090332031;	2179,5;	0,0;	0,0
441,60150146484375;	637,0;	0,0;	0,0
441,64996337890625;	298,75;	0,0;	0,0
441,6984558105469;	275,0;	0,0;	0,0
441,7469177246094;	272,75;	0,0;	0,0
441,79534912109375;	259,25;	0,0;	0,0
441,8437805175781;	262,5;	0,0;	0,0
441,8922119140625;	256,75;	0,0;	0,0
441,9406433105469;	252,0;	0,0;	0,0
441,9890441894531;	249,25;	0,0;	0,0
442,03741455078125;	248,0;	0,0;	0,0
442,0858154296875;	254,75;	0,0;	0,0
442,1341552734375;	258,75;	0,0;	0,0
442,18255615234375;	259,5;	0,0;	0,0
442,2308654785156;	295,5;	0,0;	0,0
442,2792053222656;	346,0;	0,0;	0,0
442,3275146484375;	319,75;	0,0;	0,0
442,3758544921875;	258,75;	0,0;	0,0
442,4241638183594;	277,25;	0,0;	0,0
442,4724426269531;	280,25;	0,0;	0,0
442,520751953125;	340,5;	0,0;	0,0
442,5690002441406;	456,25;	0,0;	0,0
442,6172790527344;	364,75;	0,0;	0,0
442,66552734375;	309,5;	0,0;	0,0
442,7137756347656;	351,5;	0,0;	0,0
442,7619934082031;	519,25;	0,0;	0,0
442,8102111816406;	358,0;	0,0;	0,0
442,8583984375;	283,25;	0,0;	0,0
442,9066162109375;	252,25;	0,0;	0,0
442,9548034667969;	278,75;	0,0;	0,0
443,0029602050781;	307,5;	0,0;	0,0
443,0511169433594;	339,0;	0,0;	0,0
443,0992736816406;	367,0;	0,0;	0,0
443,1474304199219;	270,0;	0,0;	0,0
443,195556640625;	265,25;	0,0;	0,0
443,2436828613281;	249,25;	0,0;	0,0
443,2917785644531;	289,5;	0,0;	0,0
443,33984375;	333,0;	0,0;	0,0
443,3879699707031;	359,5;	0,0;	0,0
443,4360046386719;	397,5;	0,0;	0,0
443,48406982421875;	526,5;	0,0;	0,0
443,5321350097656;	766,25;	0,0;	0,0
443,5802001953125;	513,5;	0,0;	0,0
443,6282043457031;	407,75;	0,0;	0,0
443,6762390136719;	285,25;	0,0;	0,0
443,7242431640625;	287,75;	0,0;	0,0
443,7722473144531;	265,0;	0,0;	0,0
443,8202209472656;	256,25;	0,0;	0,0
443,86822509765625;	253,25;	0,0;	0,0
443,9161682128906;	242,0;	0,0;	0,0
443,964111328125;	264,75;	0,0;	0,0
444,0120544433594;	263,0;	0,0;	0,0
444,05999755859375;	249,0;	0,0;	0,0
444,10791015625;	270,5;	0,0;	0,0
444,15582275390625;	299,0;	0,0;	0,0
444,2037353515625;	328,25;	0,0;	0,0
444,2516174316406;	480,5;	0,0;	0,0
444,29949951171875;	444,5;	0,0;	0,0
444,34735107421875;	365,25;	0,0;	0,0
444,3952331542969;	289,5;	0,0;	0,0
444,4430236816406;	236,0;	0,0;	0,0
444,49090576171875;	261,75;	0,0;	0,0
444,5386962890625;	265,25;	0,0;	0,0
444,58648681640625;	263,0;	0,0;	0,0
444,6343078613281;	256,75;	0,0;	0,0
444,6820983886719;	283,5;	0,0;	0,0
444,7298583984375;	303,75;	0,0;	0,0
444,77764892578125;	413,5;	0,0;	0,0
444,82537841796875;	400,0;	0,0;	0,0
444,8731384277344;	264,75;	0,0;	0,0
444,9208679199219;	260,25;	0,0;	0,0
444,9685974121094;	262,75;	0,0;	0,0
445,0163269042969;	253,25;	0,0;	0,0
445,0639953613281;	235,5;	0,0;	0,0
445,1117248535156;	272,75;	0,0;	0,0
445,1593933105469;	276,5;	0,0;	0,0
445,2070617675781;	258,75;	0,0;	0,0
445,25469970703125;	268,5;	0,0;	0,0
445,3023376464844;	254,75;	0,0;	0,0
445,3499755859375;	330,25;	0,0;	0,0
445,3976135253906;	426,75;	0,0;	0,0
445,4452209472656;	586,75;	0,0;	0,0
445,4928283691406;	1053,25;	0,0;	0,0
445,5404357910156;	747,25;	0,0;	0,0
445,5880126953125;	426,0;	0,0;	0,0
445,63555908203125;	431,75;	0,0;	0,0
445,6831359863281;	320,75;	0,0;	0,0
445,73065185546875;	281,0;	0,0;	0,0
445,7781982421875;	277,0;	0,0;	0,0
445,8257141113281;	307,5;	0,0;	0,0
445,87322998046875;	334,25;	0,0;	0,0
445,92071533203125;	453,75;	0,0;	0,0
445,9682312011719;	444,0;	0,0;	0,0
446,01568603515625;	285,0;	0,0;	0,0
446,06317138671875;	303,25;	0,0;	0,0
446,1106262207031;	293,0;	0,0;	0,0
446,1580810546875;	388,75;	0,0;	0,0
446,2055358886719;	448,0;	0,0;	0,0
446,2529602050781;	297,5;	0,0;	0,0
446,30035400390625;	276,5;	0,0;	0,0
446,3477478027344;	252,5;	0,0;	0,0
446,3951416015625;	259,25;	0,0;	0,0
446,4425354003906;	252,5;	0,0;	0,0
446,4898986816406;	279,75;	0,0;	0,0
446,5372619628906;	264,75;	0,0;	0,0
446,5846252441406;	308,25;	0,0;	0,0
446,6319580078125;	355,0;	0,0;	0,0
446,6792907714844;	559,25;	0,0;	0,0
446,7265625;	385,25;	0,0;	0,0
446,7738952636719;	262,75;	0,0;	0,0
446,8211669921875;	264,0;	0,0;	0,0
446,8684387207031;	267,5;	0,0;	0,0
446,91571044921875;	296,5;	0,0;	0,0
446,9629821777344;	344,0;	0,0;	0,0
447,0102233886719;	290,25;	0,0;	0,0
447,05743408203125;	259,5;	0,0;	0,0
447,10467529296875;	275,25;	0,0;	0,0
447,1518859863281;	253,75;	0,0;	0,0
447,1990966796875;	268,0;	0,0;	0,0
447,2463073730469;	252,5;	0,0;	0,0
447,2934875488281;	246,25;	0,0;	0,0
447,34063720703125;	255,5;	0,0;	0,0
447,3878173828125;	258,25;	0,0;	0,0
447,4349365234375;	248,0;	0,0;	0,0
447,4820861816406;	278,75;	0,0;	0,0
447,5292053222656;	318,5;	0,0;	0,0
447,5763244628906;	359,25;	0,0;	0,0
447,6234436035156;	537,0;	0,0;	0,0
447,6705322265625;	399,0;	0,0;	0,0
447,7176208496094;	265,25;	0,0;	0,0
447,7646789550781;	262,75;	0,0;	0,0
447,81170654296875;	255,0;	0,0;	0,0
447,8587951660156;	257,5;	0,0;	0,0
447,9057922363281;	261,0;	0,0;	0,0
447,95281982421875;	247,5;	0,0;	0,0
447,9998474121094;	272,75;	0,0;	0,0
448,0468444824219;	286,0;	0,0;	0,0
448,0938415527344;	261,75;	0,0;	0,0
448,1408386230469;	291,5;	0,0;	0,0
448,18780517578125;	345,25;	0,0;	0,0
448,2347412109375;	485,25;	0,0;	0,0
448,28167724609375;	375,0;	0,0;	0,0
448,3286437988281;	282,25;	0,0;	0,0
448,3755798339844;	279,25;	0,0;	0,0
448,4224853515625;	306,0;	0,0;	0,0
448,4693908691406;	293,5;	0,0;	0,0
448,51629638671875;	290,5;	0,0;	0,0
448,56317138671875;	273,0;	0,0;	0,0
448,61004638671875;	286,5;	0,0;	0,0
448,6568908691406;	265,0;	0,0;	0,0
448,7037353515625;	245,25;	0,0;	0,0
448,7505798339844;	243,75;	0,0;	0,0
448,79742431640625;	255,0;	0,0;	0,0
448,8442077636719;	251,75;	0,0;	0,0
448,8910217285156;	260,0;	0,0;	0,0
448,9378356933594;	282,0;	0,0;	0,0
448,98455810546875;	288,25;	0,0;	0,0
449,0313415527344;	310,5;	0,0;	0,0
449,0780944824219;	261,75;	0,0;	0,0
449,1248474121094;	268,5;	0,0;	0,0
449,1716003417969;	256,5;	0,0;	0,0
449,21832275390625;	255,5;	0,0;	0,0
449,2650146484375;	240,25;	0,0;	0,0
449,31170654296875;	286,25;	0,0;	0,0
449,3583984375;	283,75;	0,0;	0,0
449,40509033203125;	310,75;	0,0;	0,0
449,4517517089844;	443,75;	0,0;	0,0
449,4984130859375;	558,0;	0,0;	0,0
449,5450744628906;	286,0;	0,0;	0,0
449,5917053222656;	283,75;	0,0;	0,0
449,6383361816406;	239,75;	0,0;	0,0
449,6849670410156;	250,25;	0,0;	0,0
449,7315673828125;	270,5;	0,0;	0,0
449,77813720703125;	259,5;	0,0;	0,0
449,8247375488281;	255,75;	0,0;	0,0
449,8713073730469;	269,25;	0,0;	0,0
449,9178466796875;	254,0;	0,0;	0,0
449,96441650390625;	258,75;	0,0;	0,0
450,0109558105469;	226,25;	0,0;	0,0
450,05743408203125;	249,25;	0,0;	0,0
450,1039733886719;	246,0;	0,0;	0,0
450,15045166015625;	251,0;	0,0;	0,0
450,1969299316406;	270,75;	0,0;	0,0
450,243408203125;	250,5;	0,0;	0,0
450,2899169921875;	269,0;	0,0;	0,0
450,33636474609375;	226,0;	0,0;	0,0
450,3828125;	255,5;	0,0;	0,0
450,4292297363281;	240,25;	0,0;	0,0
450,4756774902344;	242,25;	0,0;	0,0
450,5220947265625;	249,0;	0,0;	0,0
450,5684509277344;	238,0;	0,0;	0,0
450,6148376464844;	239,75;	0,0;	0,0
450,6612243652344;	259,0;	0,0;	0,0
450,7076110839844;	253,5;	0,0;	0,0
450,75396728515625;	233,5;	0,0;	0,0
450,8003234863281;	249,5;	0,0;	0,0
450,84661865234375;	244,25;	0,0;	0,0
450,8929748535156;	248,0;	0,0;	0,0
450,93927001953125;	231,25;	0,0;	0,0
450,985595703125;	256,75;	0,0;	0,0
451,0318603515625;	242,75;	0,0;	0,0
451,078125;	261,5;	0,0;	0,0
451,1243896484375;	248,0;	0,0;	0,0
451,1706848144531;	237,5;	0,0;	0,0
451,2168884277344;	242,25;	0,0;	0,0
451,26312255859375;	264,25;	0,0;	0,0
451,309326171875;	237,75;	0,0;	0,0
451,35552978515625;	248,0;	0,0;	0,0
451,4017333984375;	249,75;	0,0;	0,0
451,44793701171875;	247,5;	0,0;	0,0
451,4941101074219;	247,5;	0,0;	0,0
451,540283203125;	255,25;	0,0;	0,0
451,58642578125;	241,5;	0,0;	0,0
451,632568359375;	247,25;	0,0;	0,0
451,6787109375;	244,75;	0,0;	0,0
451,7248229980469;	255,25;	0,0;	0,0
451,77093505859375;	261,5;	0,0;	0,0
451,8170166015625;	259,25;	0,0;	0,0
451,8631286621094;	261,0;	0,0;	0,0
451,9092102050781;	254,25;	0,0;	0,0
451,95526123046875;	247,0;	0,0;	0,0
452,0013427734375;	234,25;	0,0;	0,0
452,04736328125;	242,0;	0,0;	0,0
452,0933837890625;	244,0;	0,0;	0,0
452,139404296875;	239,0;	0,0;	0,0
452,1854248046875;	244,5;	0,0;	0,0
452,2314147949219;	246,0;	0,0;	0,0
452,2773742675781;	263,5;	0,0;	0,0
452,3233642578125;	256,5;	0,0;	0,0
452,36932373046875;	269,5;	0,0;	0,0
452,4152526855469;	255,25;	0,0;	0,0
452,4612121582031;	254,5;	0,0;	0,0
452,5071105957031;	313,25;	0,0;	0,0
452,55303955078125;	342,25;	0,0;	0,0
452,5989685058594;	298,75;	0,0;	0,0
452,64483642578125;	293,0;	0,0;	0,0
452,6907653808594;	301,25;	0,0;	0,0
452,7366027832031;	312,0;	0,0;	0,0
452,7825012207031;	370,0;	0,0;	0,0
452,8283386230469;	465,25;	0,0;	0,0
452,8741455078125;	731,5;	0,0;	0,0
452,9200134277344;	543,0;	0,0;	0,0
452,9658203125;	289,5;	0,0;	0,0
453,0116271972656;	295,5;	0,0;	0,0
453,0574035644531;	295,5;	0,0;	0,0
453,10321044921875;	307,75;	0,0;	0,0
453,1489562988281;	364,5;	0,0;	0,0
453,1947326660156;	267,25;	0,0;	0,0
453,240478515625;	249,75;	0,0;	0,0
453,2862243652344;	268,25;	0,0;	0,0
453,3319091796875;	258,75;	0,0;	0,0
453,3776550292969;	258,25;	0,0;	0,0
453,42333984375;	275,0;	0,0;	0,0
453,4690246582031;	256,75;	0,0;	0,0
453,51470947265625;	275,0;	0,0;	0,0
453,56036376953125;	262,75;	0,0;	0,0
453,6060485839844;	294,5;	0,0;	0,0
453,65167236328125;	257,5;	0,0;	0,0
453,69732666015625;	252,75;	0,0;	0,0
453,7429504394531;	257,0;	0,0;	0,0
453,7885437011719;	237,75;	0,0;	0,0
453,8341369628906;	253,75;	0,0;	0,0
453,8797302246094;	231,25;	0,0;	0,0
453,92535400390625;	252,75;	0,0;	0,0
453,9709167480469;	254,0;	0,0;	0,0
454,0164794921875;	228,75;	0,0;	0,0
454,0619812011719;	234,25;	0,0;	0,0
454,1075134277344;	265,5;	0,0;	0,0
454,1530456542969;	245,75;	0,0;	0,0
454,1985778808594;	256,0;	0,0;	0,0
454,24407958984375;	250,75;	0,0;	0,0
454,28955078125;	247,0;	0,0;	0,0
454,3350524902344;	261,25;	0,0;	0,0
454,3804931640625;	250,25;	0,0;	0,0
454,42596435546875;	238,5;	0,0;	0,0
454,4713439941406;	241,75;	0,0;	0,0
454,516845703125;	249,5;	0,0;	0,0
454,5622253417969;	255,0;	0,0;	0,0
454,6076354980469;	245,5;	0,0;	0,0
454,6530456542969;	232,25;	0,0;	0,0
454,69842529296875;	248,75;	0,0;	0,0
454,7438049316406;	274,25;	0,0;	0,0
454,7891540527344;	282,5;	0,0;	0,0
454,8345031738281;	278,75;	0,0;	0,0
454,8798522949219;	261,5;	0,0;	0,0
454,9252014160156;	258,75;	0,0;	0,0
454,97052001953125;	270,0;	0,0;	0,0
455,01580810546875;	252,25;	0,0;	0,0
455,06109619140625;	244,25;	0,0;	0,0
455,10638427734375;	272,25;	0,0;	0,0
455,1516418457031;	253,75;	0,0;	0,0
455,1969299316406;	255,5;	0,0;	0,0
455,2421569824219;	260,5;	0,0;	0,0
455,28741455078125;	316,0;	0,0;	0,0
455,3326416015625;	309,5;	0,0;	0,0
455,37786865234375;	339,25;	0,0;	0,0
455,4230651855469;	520,25;	0,0;	0,0
455,46826171875;	337,25;	0,0;	0,0
455,5133972167969;	283,0;	0,0;	0,0
455,55859375;	262,25;	0,0;	0,0
455,603759765625;	290,5;	0,0;	0,0
455,6488952636719;	288,0;	0,0;	0,0
455,69403076171875;	263,0;	0,0;	0,0
455,7391357421875;	262,0;	0,0;	0,0
455,7842712402344;	245,0;	0,0;	0,0
455,8293762207031;	257,75;	0,0;	0,0
455,8744812011719;	247,0;	0,0;	0,0
455,9195251464844;	253,5;	0,0;	0,0
455,964599609375;	238,0;	0,0;	0,0
456,0096740722656;	255,0;	0,0;	0,0
456,0547180175781;	230,25;	0,0;	0,0
456,0997619628906;	248,5;	0,0;	0,0
456,144775390625;	238,25;	0,0;	0,0
456,18975830078125;	249,0;	0,0;	0,0
456,23480224609375;	237,0;	0,0;	0,0
456,27978515625;	250,0;	0,0;	0,0
456,3247375488281;	233,75;	0,0;	0,0
456,3697204589844;	234,0;	0,0;	0,0
456,4146728515625;	226,5;	0,0;	0,0
456,4595947265625;	260,0;	0,0;	0,0
456,5045471191406;	256,5;	0,0;	0,0
456,5494384765625;	259,75;	0,0;	0,0
456,5943908691406;	260,0;	0,0;	0,0
456,6392517089844;	239,75;	0,0;	0,0
456,6841125488281;	233,5;	0,0;	0,0
456,72900390625;	254,25;	0,0;	0,0
456,77386474609375;	241,75;	0,0;	0,0
456,8186950683594;	234,0;	0,0;	0,0
456,8635559082031;	235,75;	0,0;	0,0
456,90838623046875;	240,25;	0,0;	0,0
456,9532165527344;	247,0;	0,0;	0,0
456,9980163574219;	258,75;	0,0;	0,0
457,04278564453125;	244,0;	0,0;	0,0
457,08758544921875;	227,25;	0,0;	0,0
457,13238525390625;	246,5;	0,0;	0,0
457,1771240234375;	240,5;	0,0;	0,0
457,2218933105469;	242,25;	0,0;	0,0
457,2666320800781;	244,5;	0,0;	0,0
457,31134033203125;	250,0;	0,0;	0,0
457,3560485839844;	239,75;	0,0;	0,0
457,4007568359375;	239,25;	0,0;	0,0
457,4454345703125;	250,0;	0,0;	0,0
457,4901428222656;	229,25;	0,0;	0,0
457,5347900390625;	258,5;	0,0;	0,0
457,5794677734375;	239,75;	0,0;	0,0
457,62408447265625;	241,5;	0,0;	0,0
457,668701171875;	234,5;	0,0;	0,0
457,7133483886719;	251,5;	0,0;	0,0
457,7579345703125;	222,75;	0,0;	0,0
457,80255126953125;	254,25;	0,0;	0,0
457,84710693359375;	256,25;	0,0;	0,0
457,8916931152344;	276,25;	0,0;	0,0
457,936279296875;	257,75;	0,0;	0,0
457,9808349609375;	245,75;	0,0;	0,0
458,025390625;	271,5;	0,0;	0,0
458,0699157714844;	257,5;	0,0;	0,0
458,1144104003906;	278,5;	0,0;	0,0
458,158935546875;	301,25;	0,0;	0,0
458,20343017578125;	257,75;	0,0;	0,0
458,2479248046875;	239,75;	0,0;	0,0
458,2923889160156;	263,25;	0,0;	0,0
458,33685302734375;	257,25;	0,0;	0,0
458,3813171386719;	264,0;	0,0;	0,0
458,4257507324219;	271,75;	0,0;	0,0
458,47015380859375;	248,25;	0,0;	0,0
458,51458740234375;	245,0;	0,0;	0,0
458,5589904785156;	266,0;	0,0;	0,0
458,60333251953125;	292,0;	0,0;	0,0
458,6477966308594;	298,75;	0,0;	0,0
458,6921081542969;	266,5;	0,0;	0,0
458,73651123046875;	243,5;	0,0;	0,0
458,78082275390625;	244,0;	0,0;	0,0
458,8251953125;	251,0;	0,0;	0,0
458,8695068359375;	247,25;	0,0;	0,0
458,9137878417969;	226,25;	0,0;	0,0
458,9580993652344;	245,25;	0,0;	0,0
459,00238037109375;	232,0;	0,0;	0,0
459,04669189453125;	235,5;	0,0;	0,0
459,0909423828125;	253,5;	0,0;	0,0
459,13519287109375;	266,0;	0,0;	0,0
459,179443359375;	257,5;	0,0;	0,0
459,22369384765625;	255,5;	0,0;	0,0
459,26788330078125;	285,75;	0,0;	0,0
459,3121032714844;	271,25;	0,0;	0,0
459,3562927246094;	241,0;	0,0;	0,0
459,4004821777344;	242,25;	0,0;	0,0
459,4446716308594;	263,75;	0,0;	0,0
459,48883056640625;	239,75;	0,0;	0,0
459,5329895019531;	231,0;	0,0;	0,0
459,5771179199219;	241,5;	0,0;	0,0
459,6212463378906;	258,0;	0,0;	0,0
459,66534423828125;	248,25;	0,0;	0,0
459,7094421386719;	239,25;	0,0;	0,0
459,7535705566406;	244,0;	0,0;	0,0
459,7976379394531;	248,25;	0,0;	0,0
459,8417053222656;	255,0;	0,0;	0,0
459,8857727050781;	257,5;	0,0;	0,0
459,9298095703125;	242,5;	0,0;	0,0
459,9738464355469;	256,5;	0,0;	0,0
460,01788330078125;	255,0;	0,0;	0,0
460,0618896484375;	263,0;	0,0;	0,0
460,1058654785156;	254,75;	0,0;	0,0
460,14990234375;	264,75;	0,0;	0,0
460,1938781738281;	246,75;	0,0;	0,0
460,2378234863281;	272,0;	0,0;	0,0
460,28179931640625;	308,0;	0,0;	0,0
460,32574462890625;	322,25;	0,0;	0,0
460,3696594238281;	245,25;	0,0;	0,0
460,41357421875;	251,25;	0,0;	0,0
460,4574890136719;	263,0;	0,0;	0,0
460,50140380859375;	254,5;	0,0;	0,0
460,5452575683594;	245,5;	0,0;	0,0
460,58917236328125;	266,0;	0,0;	0,0
460,63299560546875;	279,5;	0,0;	0,0
460,6768798828125;	268,0;	0,0;	0,0
460,7206726074219;	263,75;	0,0;	0,0
460,7645263671875;	304,75;	0,0;	0,0
460,808349609375;	260,5;	0,0;	0,0
460,8521728515625;	262,25;	0,0;	0,0
460,89593505859375;	231,0;	0,0;	0,0
460,93975830078125;	239,25;	0,0;	0,0
460,9834899902344;	260,25;	0,0;	0,0
461,0272521972656;	261,25;	0,0;	0,0
461,0710144042969;	231,5;	0,0;	0,0
461,11474609375;	290,0;	0,0;	0,0
461,158447265625;	285,0;	0,0;	0,0
461,2021789550781;	267,0;	0,0;	0,0
461,2458801269531;	239,0;	0,0;	0,0
461,28955078125;	252,25;	0,0;	0,0
461,333251953125;	252,5;	0,0;	0,0
461,3769226074219;	245,5;	0,0;	0,0
461,4205627441406;	242,5;	0,0;	0,0
461,4642028808594;	251,0;	0,0;	0,0
461,5078430175781;	242,0;	0,0;	0,0
461,55145263671875;	248,75;	0,0;	0,0
461,5950622558594;	238,75;	0,0;	0,0
461,638671875;	249,25;	0,0;	0,0
461,6822509765625;	264,0;	0,0;	0,0
461,7257995605469;	258,5;	0,0;	0,0
461,7693786621094;	242,25;	0,0;	0,0
461,81292724609375;	257,25;	0,0;	0,0
461,85650634765625;	278,0;	0,0;	0,0
461,8999938964844;	270,0;	0,0;	0,0
461,94354248046875;	253,75;	0,0;	0,0
461,9870300292969;	260,5;	0,0;	0,0
462,0304870605469;	231,0;	0,0;	0,0
462,0740051269531;	252,5;	0,0;	0,0
462,1174621582031;	247,5;	0,0;	0,0
462,1609191894531;	244,25;	0,0;	0,0
462,2043762207031;	245,75;	0,0;	0,0
462,247802734375;	245,5;	0,0;	0,0
462,2912292480469;	247,25;	0,0;	0,0
462,3346252441406;	239,25;	0,0;	0,0
462,3780517578125;	246,0;	0,0;	0,0
462,4214172363281;	262,25;	0,0;	0,0
462,4648132324219;	251,25;	0,0;	0,0
462,5081787109375;	265,5;	0,0;	0,0
462,551513671875;	287,0;	0,0;	0,0
462,5948791503906;	251,5;	0,0;	0,0
462,6382141113281;	255,0;	0,0;	0,0
462,6815185546875;	239,5;	0,0;	0,0
462,7248229980469;	239,75;	0,0;	0,0
462,76812744140625;	243,5;	0,0;	0,0
462,8113708496094;	235,25;	0,0;	0,0
462,85467529296875;	241,5;	0,0;	0,0
462,8979187011719;	242,25;	0,0;	0,0
462,9411926269531;	253,25;	0,0;	0,0
462,9844055175781;	265,75;	0,0;	0,0
463,0276184082031;	265,5;	0,0;	0,0
463,0708312988281;	247,75;	0,0;	0,0
463,1140441894531;	253,5;	0,0;	0,0
463,1572265625;	227,5;	0,0;	0,0
463,2004089355469;	274,75;	0,0;	0,0
463,24359130859375;	248,75;	0,0;	0,0
463,2867431640625;	263,25;	0,0;	0,0
463,32989501953125;	247,25;	0,0;	0,0
463,3730163574219;	240,75;	0,0;	0,0
463,4161376953125;	227,75;	0,0;	0,0
463,459228515625;	254,25;	0,0;	0,0
463,5023498535156;	240,5;	0,0;	0,0
463,5454406738281;	256,0;	0,0;	0,0
463,5885009765625;	256,25;	0,0;	0,0
463,6315612792969;	257,25;	0,0;	0,0
463,67462158203125;	253,5;	0,0;	0,0
463,7176513671875;	272,25;	0,0;	0,0
463,76068115234375;	285,0;	0,0;	0,0
463,8036804199219;	293,5;	0,0;	0,0
463,8467102050781;	271,0;	0,0;	0,0
463,8896789550781;	245,75;	0,0;	0,0
463,93267822265625;	246,5;	0,0;	0,0
463,9756164550781;	259,0;	0,0;	0,0
464,0186462402344;	251,25;	0,0;	0,0
464,0615234375;	256,5;	0,0;	0,0
464,1044921875;	248,75;	0,0;	0,0
464,14739990234375;	251,75;	0,0;	0,0
464,1903076171875;	252,5;	0,0;	0,0
464,2331848144531;	241,0;	0,0;	0,0
464,2760925292969;	251,25;	0,0;	0,0
464,3189697265625;	244,75;	0,0;	0,0
464,3618469238281;	257,25;	0,0;	0,0
464,4046936035156;	254,75;	0,0;	0,0
464,4475402832031;	260,5;	0,0;	0,0
464,4903869628906;	256,0;	0,0;	0,0
464,5331726074219;	239,75;	0,0;	0,0
464,57598876953125;	254,0;	0,0;	0,0
464,6188049316406;	268,25;	0,0;	0,0
464,66156005859375;	261,75;	0,0;	0,0
464,704345703125;	280,5;	0,0;	0,0
464,7471008300781;	284,75;	0,0;	0,0
464,78985595703125;	278,5;	0,0;	0,0
464,83258056640625;	225,0;	0,0;	0,0
464,8752746582031;	239,75;	0,0;	0,0
464,9179992675781;	265,75;	0,0;	0,0
464,9606628417969;	228,25;	0,0;	0,0
465,00341796875;	244,75;	0,0;	0,0
465,0460510253906;	244,0;	0,0;	0,0
465,0887145996094;	255,25;	0,0;	0,0
465,1313781738281;	251,75;	0,0;	0,0
465,17401123046875;	264,0;	0,0;	0,0
465,2166748046875;	276,25;	0,0;	0,0
465,2592468261719;	262,5;	0,0;	0,0
465,3018798828125;	257,5;	0,0;	0,0
465,344482421875;	260,25;	0,0;	0,0
465,3870544433594;	265,5;	0,0;	0,0
465,42962646484375;	266,5;	0,0;	0,0
465,4721984863281;	322,75;	0,0;	0,0
465,5147399902344;	278,25;	0,0;	0,0
465,5572814941406;	233,5;	0,0;	0,0
465,59979248046875;	248,75;	0,0;	0,0
465,6423034667969;	242,25;	0,0;	0,0
465,684814453125;	242,25;	0,0;	0,0
465,727294921875;	260,5;	0,0;	0,0
465,769775390625;	251,25;	0,0;	0,0
465,812255859375;	246,75;	0,0;	0,0
465,8547058105469;	246,5;	0,0;	0,0
465,89715576171875;	257,5;	0,0;	0,0
465,9395751953125;	242,75;	0,0;	0,0
465,98199462890625;	253,0;	0,0;	0,0
466,0243835449219;	245,75;	0,0;	0,0
466,0667724609375;	244,75;	0,0;	0,0
466,1091613769531;	245,75;	0,0;	0,0
466,15155029296875;	255,75;	0,0;	0,0
466,19390869140625;	252,5;	0,0;	0,0
466,2362365722656;	249,25;	0,0;	0,0
466,2785949707031;	253,75;	0,0;	0,0
466,3209228515625;	246,75;	0,0;	0,0
466,36322021484375;	263,75;	0,0;	0,0
466,4055480957031;	260,25;	0,0;	0,0
466,44781494140625;	252,0;	0,0;	0,0
466,4900817871094;	238,75;	0,0;	0,0
466,5323791503906;	272,75;	0,0;	0,0
466,5746154785156;	261,75;	0,0;	0,0
466,61688232421875;	258,0;	0,0;	0,0
466,6590881347656;	268,5;	0,0;	0,0
466,7013244628906;	295,75;	0,0;	0,0
466,7435302734375;	311,25;	0,0;	0,0
466,78570556640625;	312,75;	0,0;	0,0
466,8278503417969;	315,0;	0,0;	0,0
466,87005615234375;	287,75;	0,0;	0,0
466,9122009277344;	294,25;	0,0;	0,0
466,9543762207031;	284,5;	0,0;	0,0
466,9964904785156;	248,75;	0,0;	0,0
467,03863525390625;	264,0;	0,0;	0,0
467,08074951171875;	265,75;	0,0;	0,0
467,1228332519531;	253,5;	0,0;	0,0
467,1649169921875;	281,25;	0,0;	0,0
467,20703125;	280,75;	0,0;	0,0
467,24908447265625;	261,5;	0,0;	0,0
467,2911071777344;	271,25;	0,0;	0,0
467,33319091796875;	281,25;	0,0;	0,0
467,3752136230469;	276,0;	0,0;	0,0
467,4172058105469;	242,75;	0,0;	0,0
467,459228515625;	262,25;	0,0;	0,0
467,501220703125;	252,0;	0,0;	0,0
467,5431823730469;	249,0;	0,0;	0,0
467,5851745605469;	269,5;	0,0;	0,0
467,62713623046875;	263,75;	0,0;	0,0
467,6690979003906;	259,5;	0,0;	0,0
467,7110290527344;	258,5;	0,0;	0,0
467,7529602050781;	249,0;	0,0;	0,0
467,79486083984375;	262,25;	0,0;	0,0
467,8367614746094;	280,25;	0,0;	0,0
467,8786315917969;	304,25;	0,0;	0,0
467,9205322265625;	298,75;	0,0;	0,0
467,9623718261719;	255,5;	0,0;	0,0
468,0042419433594;	261,5;	0,0;	0,0
468,04608154296875;	281,5;	0,0;	0,0
468,087890625;	236,5;	0,0;	0,0
468,1297302246094;	279,75;	0,0;	0,0
468,1715393066406;	234,75;	0,0;	0,0
468,21331787109375;	263,75;	0,0;	0,0
468,2550964355469;	244,25;	0,0;	0,0
468,296875;	242,25;	0,0;	0,0
468,3386535644531;	248,25;	0,0;	0,0
468,38037109375;	245,75;	0,0;	0,0
468,422119140625;	261,75;	0,0;	0,0
468,4638366699219;	261,0;	0,0;	0,0
468,50555419921875;	246,0;	0,0;	0,0
468,5472412109375;	255,0;	0,0;	0,0
468,58892822265625;	254,25;	0,0;	0,0
468,630615234375;	256,75;	0,0;	0,0
468,6722717285156;	241,0;	0,0;	0,0
468,71392822265625;	263,0;	0,0;	0,0
468,75555419921875;	234,0;	0,0;	0,0
468,7972106933594;	257,5;	0,0;	0,0
468,83880615234375;	244,25;	0,0;	0,0
468,88043212890625;	242,0;	0,0;	0,0
468,9219665527344;	243,0;	0,0;	0,0
468,9635925292969;	258,5;	0,0;	0,0
469,0051574707031;	256,75;	0,0;	0,0
469,0467224121094;	274,5;	0,0;	0,0
469,0882263183594;	265,5;	0,0;	0,0
469,1297912597656;	272,5;	0,0;	0,0
469,1712951660156;	278,25;	0,0;	0,0
469,2127990722656;	247,25;	0,0;	0,0
469,2543029785156;	271,25;	0,0;	0,0
469,2958068847656;	249,25;	0,0;	0,0
469,3372802734375;	261,25;	0,0;	0,0
469,3787536621094;	245,5;	0,0;	0,0
469,4201965332031;	253,0;	0,0;	0,0
469,4616394042969;	240,0;	0,0;	0,0
469,5030517578125;	248,5;	0,0;	0,0
469,54449462890625;	259,0;	0,0;	0,0
469,58587646484375;	243,75;	0,0;	0,0
469,6272888183594;	255,5;	0,0;	0,0
469,66864013671875;	249,0;	0,0;	0,0
469,7099914550781;	264,25;	0,0;	0,0
469,7513732910156;	264,5;	0,0;	0,0
469,7926940917969;	257,75;	0,0;	0,0
469,83404541015625;	248,25;	0,0;	0,0
469,8753356933594;	248,0;	0,0;	0,0
469,91668701171875;	247,0;	0,0;	0,0
469,95794677734375;	266,25;	0,0;	0,0
469,999267578125;	248,75;	0,0;	0,0
470,0404968261719;	265,5;	0,0;	0,0
470,0817565917969;	251,0;	0,0;	0,0
470,12298583984375;	246,0;	0,0;	0,0
470,16424560546875;	246,0;	0,0;	0,0
470,2054748535156;	256,75;	0,0;	0,0
470,2467041015625;	262,75;	0,0;	0,0
470,28790283203125;	273,0;	0,0;	0,0
470,3290710449219;	250,5;	0,0;	0,0
470,3702392578125;	252,5;	0,0;	0,0
470,41143798828125;	267,75;	0,0;	0,0
470,4526062011719;	259,75;	0,0;	0,0
470,49371337890625;	267,0;	0,0;	0,0
470,53485107421875;	266,75;	0,0;	0,0
470,5759582519531;	258,75;	0,0;	0,0
470,6170959472656;	265,25;	0,0;	0,0
470,6581726074219;	266,75;	0,0;	0,0
470,6992492675781;	266,0;	0,0;	0,0
470,7403259277344;	296,75;	0,0;	0,0
470,7814025878906;	276,25;	0,0;	0,0
470,8223876953125;	266,0;	0,0;	0,0
470,86346435546875;	264,75;	0,0;	0,0
470,90447998046875;	253,0;	0,0;	0,0
470,94549560546875;	254,25;	0,0;	0,0
470,9864807128906;	240,5;	0,0;	0,0
471,0274658203125;	291,0;	0,0;	0,0
471,0684509277344;	261,25;	0,0;	0,0
471,1094055175781;	269,0;	0,0;	0,0
471,15032958984375;	242,0;	0,0;	0,0
471,1912841796875;	249,75;	0,0;	0,0
471,23223876953125;	238,5;	0,0;	0,0
471,27313232421875;	249,5;	0,0;	0,0
471,3140563964844;	251,0;	0,0;	0,0
471,35491943359375;	242,5;	0,0;	0,0
471,39581298828125;	245,25;	0,0;	0,0
471,4366455078125;	241,75;	0,0;	0,0
471,4775390625;	240,75;	0,0;	0,0
471,51837158203125;	238,5;	0,0;	0,0
471,5592041015625;	260,75;	0,0;	0,0
471,60003662109375;	243,0;	0,0;	0,0
471,6408386230469;	241,25;	0,0;	0,0
471,6816101074219;	251,25;	0,0;	0,0
471,722412109375;	253,75;	0,0;	0,0
471,7631530761719;	240,75;	0,0;	0,0
471,8039245605469;	266,5;	0,0;	0,0
471,84466552734375;	240,5;	0,0;	0,0
471,88543701171875;	237,5;	0,0;	0,0
471,9261169433594;	264,75;	0,0;	0,0
471,9668884277344;	233,75;	0,0;	0,0
472,0075378417969;	259,25;	0,0;	0,0
472,0482177734375;	257,75;	0,0;	0,0
472,0888977050781;	261,25;	0,0;	0,0
472,1295471191406;	263,25;	0,0;	0,0
472,17022705078125;	261,25;	0,0;	0,0
472,21087646484375;	267,0;	0,0;	0,0
472,25146484375;	294,75;	0,0;	0,0
472,2920837402344;	268,0;	0,0;	0,0
472,33270263671875;	224,0;	0,0;	0,0
472,373291015625;	259,5;	0,0;	0,0
472,41387939453125;	237,0;	0,0;	0,0
472,4544372558594;	235,75;	0,0;	0,0
472,4949951171875;	255,0;	0,0;	0,0
472,5355529785156;	241,0;	0,0;	0,0
472,5760803222656;	271,25;	0,0;	0,0
472,6166076660156;	243,0;	0,0;	0,0
472,6571044921875;	253,25;	0,0;	0,0
472,6976013183594;	267,0;	0,0;	0,0
472,7380676269531;	284,5;	0,0;	0,0
472,7785339355469;	283,5;	0,0;	0,0
472,81903076171875;	278,5;	0,0;	0,0
472,85943603515625;	261,5;	0,0;	0,0
472,89990234375;	272,0;	0,0;	0,0
472,9402770996094;	247,75;	0,0;	0,0
472,980712890625;	260,25;	0,0;	0,0
473,0211181640625;	237,75;	0,0;	0,0
473,0614929199219;	236,25;	0,0;	0,0
473,1018981933594;	256,5;	0,0;	0,0
473,1422424316406;	257,25;	0,0;	0,0
473,1826171875;	242,5;	0,0;	0,0
473,2229309082031;	251,75;	0,0;	0,0
473,26324462890625;	239,5;	0,0;	0,0
473,3035888671875;	253,75;	0,0;	0,0
473,3439025878906;	252,0;	0,0;	0,0
473,3841552734375;	259,25;	0,0;	0,0
473,4244689941406;	262,75;	0,0;	0,0
473,4647216796875;	253,25;	0,0;	0,0
473,5049743652344;	262,75;	0,0;	0,0
473,54522705078125;	298,5;	0,0;	0,0
473,58544921875;	300,5;	0,0;	0,0
473,62567138671875;	320,25;	0,0;	0,0
473,6658935546875;	335,0;	0,0;	0,0
473,7060546875;	334,25;	0,0;	0,0
473,7462463378906;	291,75;	0,0;	0,0
473,7864074707031;	260,25;	0,0;	0,0
473,82659912109375;	267,5;	0,0;	0,0
473,8667297363281;	251,0;	0,0;	0,0
473,9068298339844;	263,0;	0,0;	0,0
473,9469909667969;	263,25;	0,0;	0,0
473,9870910644531;	257,0;	0,0;	0,0
474,0271911621094;	248,25;	0,0;	0,0
474,0672607421875;	253,0;	0,0;	0,0
474,1073303222656;	247,5;	0,0;	0,0
474,14739990234375;	272,0;	0,0;	0,0
474,18743896484375;	242,5;	0,0;	0,0
474,22747802734375;	257,0;	0,0;	0,0
474,26751708984375;	243,0;	0,0;	0,0
474,30755615234375;	249,75;	0,0;	0,0
474,3475646972656;	257,5;	0,0;	0,0
474,3875427246094;	255,25;	0,0;	0,0
474,4275207519531;	255,5;	0,0;	0,0
474,4674987792969;	269,0;	0,0;	0,0
474,5074462890625;	255,25;	0,0;	0,0
474,5473937988281;	253,25;	0,0;	0,0
474,5873107910156;	261,0;	0,0;	0,0
474,627197265625;	245,25;	0,0;	0,0
474,6671447753906;	264,5;	0,0;	0,0
474,7070007324219;	255,0;	0,0;	0,0
474,7469177246094;	267,0;	0,0;	0,0
474,7867431640625;	268,5;	0,0;	0,0
474,82666015625;	248,0;	0,0;	0,0
474,8664855957031;	246,75;	0,0;	0,0
474,9062805175781;	257,5;	0,0;	0,0
474,9461364746094;	239,5;	0,0;	0,0
474,98590087890625;	247,25;	0,0;	0,0
475,0257263183594;	251,5;	0,0;	0,0
475,0655212402344;	255,25;	0,0;	0,0
475,1053161621094;	244,25;	0,0;	0,0
475,1450500488281;	260,75;	0,0;	0,0
475,184814453125;	268,5;	0,0;	0,0
475,22454833984375;	267,25;	0,0;	0,0
475,2642517089844;	278,5;	0,0;	0,0
475,3039855957031;	261,5;	0,0;	0,0
475,34368896484375;	260,25;	0,0;	0,0
475,38336181640625;	289,75;	0,0;	0,0
475,42303466796875;	265,0;	0,0;	0,0
475,46270751953125;	257,75;	0,0;	0,0
475,5023498535156;	257,75;	0,0;	0,0
475,5419921875;	235,0;	0,0;	0,0
475,5816345214844;	254,75;	0,0;	0,0
475,6212158203125;	245,5;	0,0;	0,0
475,6608581542969;	246,75;	0,0;	0,0
475,7004089355469;	233,75;	0,0;	0,0
475,7400207519531;	269,0;	0,0;	0,0
475,7795715332031;	253,75;	0,0;	0,0
475,8191223144531;	251,25;	0,0;	0,0
475,8586730957031;	273,25;	0,0;	0,0
475,898193359375;	247,75;	0,0;	0,0
475,9377136230469;	260,0;	0,0;	0,0
475,9772033691406;	253,75;	0,0;	0,0
476,0167236328125;	236,5;	0,0;	0,0
476,0561828613281;	244,0;	0,0;	0,0
476,0956726074219;	249,75;	0,0;	0,0
476,1351318359375;	257,5;	0,0;	0,0
476,1745910644531;	269,75;	0,0;	0,0
476,2140197753906;	259,75;	0,0;	0,0
476,2534484863281;	289,5;	0,0;	0,0
476,2928466796875;	258,25;	0,0;	0,0
476,3322448730469;	251,25;	0,0;	0,0
476,3716125488281;	260,75;	0,0;	0,0
476,4110107421875;	263,75;	0,0;	0,0
476,4503479003906;	254,75;	0,0;	0,0
476,4897155761719;	257,5;	0,0;	0,0
476,52899169921875;	259,0;	0,0;	0,0
476,5683898925781;	270,75;	0,0;	0,0
476,607666015625;	256,25;	0,0;	0,0
476,64697265625;	269,75;	0,0;	0,0
476,6862487792969;	258,25;	0,0;	0,0
476,7255554199219;	253,5;	0,0;	0,0
476,7647705078125;	252,75;	0,0;	0,0
476,8040466308594;	261,5;	0,0;	0,0
476,8432922363281;	247,25;	0,0;	0,0
476,88250732421875;	253,5;	0,0;	0,0
476,9217224121094;	252,75;	0,0;	0,0
476,9609069824219;	244,75;	0,0;	0,0
477,0001220703125;	246,75;	0,0;	0,0
477,0392761230469;	252,0;	0,0;	0,0
477,0784606933594;	241,75;	0,0;	0,0
477,1176452636719;	260,75;	0,0;	0,0
477,1567687988281;	249,25;	0,0;	0,0
477,1958923339844;	252,25;	0,0;	0,0
477,2350158691406;	247,5;	0,0;	0,0
477,27410888671875;	259,25;	0,0;	0,0
477,3132019042969;	255,25;	0,0;	0,0
477,352294921875;	268,5;	0,0;	0,0
477,3913879394531;	245,0;	0,0;	0,0
477,4303894042969;	258,75;	0,0;	0,0
477,469482421875;	234,0;	0,0;	0,0
477,50848388671875;	228,0;	0,0;	0,0
477,5475158691406;	254,25;	0,0;	0,0
477,58648681640625;	249,0;	0,0;	0,0
477,62554931640625;	246,75;	0,0;	0,0
477,66448974609375;	267,0;	0,0;	0,0
477,70343017578125;	246,0;	0,0;	0,0
477,7424011230469;	240,5;	0,0;	0,0
477,7813415527344;	251,5;	0,0;	0,0
477,8203125;	221,25;	0,0;	0,0
477,85919189453125;	232,5;	0,0;	0,0
477,89813232421875;	254,0;	0,0;	0,0
477,93701171875;	238,75;	0,0;	0,0
477,9759216308594;	237,75;	0,0;	0,0
478,0147705078125;	252,5;	0,0;	0,0
478,05364990234375;	232,25;	0,0;	0,0
478,092529296875;	252,5;	0,0;	0,0
478,13134765625;	235,75;	0,0;	0,0
478,170166015625;	241,75;	0,0;	0,0
478,2089538574219;	243,75;	0,0;	0,0
478,2477722167969;	270,5;	0,0;	0,0
478,28656005859375;	245,25;	0,0;	0,0
478,3253479003906;	271,25;	0,0;	0,0
478,3641052246094;	286,75;	0,0;	0,0
478,4028625488281;	235,25;	0,0;	0,0
478,4416198730469;	233,75;	0,0;	0,0
478,48028564453125;	253,0;	0,0;	0,0
478,51904296875;	261,5;	0,0;	0,0
478,5577392578125;	253,75;	0,0;	0,0
478,596435546875;	249,5;	0,0;	0,0
478,6351013183594;	267,25;	0,0;	0,0
478,6737365722656;	271,5;	0,0;	0,0
478,71240234375;	279,75;	0,0;	0,0
478,7510681152344;	237,25;	0,0;	0,0
478,7897033691406;	253,25;	0,0;	0,0
478,82830810546875;	272,5;	0,0;	0,0
478,8669128417969;	273,25;	0,0;	0,0
478,9054870605469;	274,25;	0,0;	0,0
478,9440612792969;	273,5;	0,0;	0,0
478,982666015625;	272,5;	0,0;	0,0
479,0212097167969;	249,25;	0,0;	0,0
479,05975341796875;	243,5;	0,0;	0,0
479,0982971191406;	235,5;	0,0;	0,0
479,1368103027344;	247,25;	0,0;	0,0
479,17529296875;	244,25;	0,0;	0,0
479,21380615234375;	248,5;	0,0;	0,0
479,2522888183594;	265,75;	0,0;	0,0
479,29071044921875;	248,25;	0,0;	0,0
479,3292236328125;	245,0;	0,0;	0,0
479,3676452636719;	231,0;	0,0;	0,0
479,4060974121094;	256,75;	0,0;	0,0
479,44451904296875;	241,25;	0,0;	0,0
479,4829406738281;	254,0;	0,0;	0,0
479,52130126953125;	238,5;	0,0;	0,0
479,5596923828125;	250,5;	0,0;	0,0
479,59808349609375;	244,75;	0,0;	0,0
479,63641357421875;	267,0;	0,0;	0,0
479,6747741699219;	243,5;	0,0;	0,0
479,7131042480469;	250,75;	0,0;	0,0
479,7514343261719;	239,75;	0,0;	0,0
479,7897644042969;	250,75;	0,0;	0,0
479,8280334472656;	255,0;	0,0;	0,0
479,8663330078125;	248,75;	0,0;	0,0
479,9045715332031;	258,75;	0,0;	0,0
479,9428405761719;	264,75;	0,0;	0,0
479,9811096191406;	261,75;	0,0;	0,0
480,01934814453125;	261,0;	0,0;	0,0
480,05755615234375;	230,75;	0,0;	0,0
480,0957946777344;	251,25;	0,0;	0,0
480,1340026855469;	255,75;	0,0;	0,0
480,17218017578125;	252,25;	0,0;	0,0
480,2103576660156;	266,0;	0,0;	0,0
480,24847412109375;	235,25;	0,0;	0,0
480,28668212890625;	264,5;	0,0;	0,0
480,3247985839844;	258,75;	0,0;	0,0
480,3629455566406;	256,5;	0,0;	0,0
480,4010314941406;	230,0;	0,0;	0,0
480,4391174316406;	252,0;	0,0;	0,0
480,4772033691406;	249,25;	0,0;	0,0
480,5152893066406;	244,75;	0,0;	0,0
480,5533447265625;	253,75;	0,0;	0,0
480,5914001464844;	242,0;	0,0;	0,0
480,62945556640625;	244,5;	0,0;	0,0
480,66748046875;	258,0;	0,0;	0,0
480,7054748535156;	232,75;	0,0;	0,0
480,7434997558594;	258,75;	0,0;	0,0
480,781494140625;	252,0;	0,0;	0,0
480,8194580078125;	246,75;	0,0;	0,0
480,857421875;	236,0;	0,0;	0,0
480,8953857421875;	255,75;	0,0;	0,0
480,9333190917969;	256,25;	0,0;	0,0
480,9712829589844;	260,0;	0,0;	0,0
481,0091552734375;	297,25;	0,0;	0,0
481,0470886230469;	315,5;	0,0;	0,0
481,0849914550781;	274,25;	0,0;	0,0
481,1228332519531;	259,0;	0,0;	0,0
481,16070556640625;	272,0;	0,0;	0,0
481,1985778808594;	248,0;	0,0;	0,0
481,2364196777344;	240,25;	0,0;	0,0
481,27423095703125;	247,0;	0,0;	0,0
481,3120422363281;	246,0;	0,0;	0,0
481,349853515625;	249,0;	0,0;	0,0
481,3876647949219;	252,0;	0,0;	0,0
481,4254150390625;	247,5;	0,0;	0,0
481,46319580078125;	247,5;	0,0;	0,0
481,5009765625;	247,0;	0,0;	0,0
481,5386962890625;	249,0;	0,0;	0,0
481,576416015625;	236,5;	0,0;	0,0
481,6141662597656;	240,75;	0,0;	0,0
481,65185546875;	233,75;	0,0;	0,0
481,6895446777344;	254,0;	0,0;	0,0
481,72723388671875;	262,0;	0,0;	0,0
481,764892578125;	235,25;	0,0;	0,0
481,8025817871094;	265,75;	0,0;	0,0
481,8402099609375;	246,25;	0,0;	0,0
481,8778381347656;	243,0;	0,0;	0,0
481,91546630859375;	239,5;	0,0;	0,0
481,95306396484375;	246,5;	0,0;	0,0
481,99066162109375;	248,25;	0,0;	0,0
482,02825927734375;	232,5;	0,0;	0,0
482,0658264160156;	244,5;	0,0;	0,0
482,1033935546875;	245,75;	0,0;	0,0
482,1408996582031;	265,75;	0,0;	0,0
482,178466796875;	268,5;	0,0;	0,0
482,2159729003906;	293,75;	0,0;	0,0
482,2534484863281;	260,25;	0,0;	0,0
482,29095458984375;	272,25;	0,0;	0,0
482,3284606933594;	274,75;	0,0;	0,0
482,36590576171875;	286,25;	0,0;	0,0
482,40338134765625;	269,75;	0,0;	0,0
482,4408264160156;	237,0;	0,0;	0,0
482,478271484375;	244,0;	0,0;	0,0
482,5157165527344;	255,25;	0,0;	0,0
482,5531005859375;	262,0;	0,0;	0,0
482,59051513671875;	243,25;	0,0;	0,0
482,6278991699219;	255,0;	0,0;	0,0
482,6652526855469;	251,5;	0,0;	0,0
482,7026062011719;	253,5;	0,0;	0,0
482,739990234375;	252,5;	0,0;	0,0
482,77728271484375;	243,0;	0,0;	0,0
482,81463623046875;	246,5;	0,0;	0,0
482,8519287109375;	263,75;	0,0;	0,0
482,8892517089844;	246,75;	0,0;	0,0
482,926513671875;	263,25;	0,0;	0,0
482,96380615234375;	258,5;	0,0;	0,0
483,00103759765625;	237,75;	0,0;	0,0
483,038330078125;	244,75;	0,0;	0,0
483,0755310058594;	243,25;	0,0;	0,0
483,1127624511719;	253,0;	0,0;	0,0
483,14996337890625;	241,75;	0,0;	0,0
483,1871643066406;	287,75;	0,0;	0,0
483,2243347167969;	263,25;	0,0;	0,0
483,26153564453125;	284,0;	0,0;	0,0
483,2986755371094;	270,5;	0,0;	0,0
483,3358154296875;	256,25;	0,0;	0,0
483,3729553222656;	271,75;	0,0;	0,0
483,41009521484375;	246,5;	0,0;	0,0
483,44720458984375;	225,5;	0,0;	0,0
483,48431396484375;	251,25;	0,0;	0,0
483,5213928222656;	276,0;	0,0;	0,0
483,5584716796875;	234,25;	0,0;	0,0
483,59552001953125;	238,25;	0,0;	0,0
483,6325988769531;	242,75;	0,0;	0,0
483,66961669921875;	241,5;	0,0;	0,0
483,7066650390625;	274,0;	0,0;	0,0
483,7436828613281;	241,0;	0,0;	0,0
483,7806396484375;	253,5;	0,0;	0,0
483,8176574707031;	263,75;	0,0;	0,0
483,8546142578125;	280,25;	0,0;	0,0
483,8916015625;	238,0;	0,0;	0,0
483,92852783203125;	257,0;	0,0;	0,0
483,9654541015625;	272,75;	0,0;	0,0
484,00238037109375;	259,25;	0,0;	0,0
484,0392761230469;	266,5;	0,0;	0,0
484,0762023925781;	247,0;	0,0;	0,0
484,1130676269531;	259,5;	0,0;	0,0
484,14996337890625;	266,75;	0,0;	0,0
484,1867980957031;	253,0;	0,0;	0,0
484,22369384765625;	260,75;	0,0;	0,0
484,260498046875;	282,0;	0,0;	0,0
484,2973327636719;	274,25;	0,0;	0,0
484,33416748046875;	276,25;	0,0;	0,0
484,3709716796875;	261,0;	0,0;	0,0
484,4077453613281;	245,75;	0,0;	0,0
484,44451904296875;	265,0;	0,0;	0,0
484,4812927246094;	251,0;	0,0;	0,0
484,5180358886719;	242,5;	0,0;	0,0
484,5547790527344;	263,0;	0,0;	0,0
484,59149169921875;	254,75;	0,0;	0,0
484,628173828125;	254,0;	0,0;	0,0
484,6649169921875;	240,5;	0,0;	0,0
484,7015686035156;	255,25;	0,0;	0,0
484,7383117675781;	256,0;	0,0;	0,0
484,77490234375;	257,25;	0,0;	0,0
484,8116149902344;	254,5;	0,0;	0,0
484,84820556640625;	264,25;	0,0;	0,0
484,8848571777344;	288,0;	0,0;	0,0
484,92144775390625;	242,0;	0,0;	0,0
484,9580383300781;	250,5;	0,0;	0,0
484,9946594238281;	262,75;	0,0;	0,0
485,03125;	249,5;	0,0;	0,0
485,06781005859375;	262,0;	0,0;	0,0
485,1043395996094;	273,5;	0,0;	0,0
485,140869140625;	278,25;	0,0;	0,0
485,1773986816406;	259,75;	0,0;	0,0
485,2138977050781;	266,25;	0,0;	0,0
485,25042724609375;	275,5;	0,0;	0,0
485,2868957519531;	279,75;	0,0;	0,0
485,3233947753906;	240,5;	0,0;	0,0
485,35986328125;	262,75;	0,0;	0,0
485,39630126953125;	276,0;	0,0;	0,0
485,4327392578125;	263,25;	0,0;	0,0
485,46917724609375;	249,25;	0,0;	0,0
485,5055847167969;	272,25;	0,0;	0,0
485,54193115234375;	279,75;	0,0;	0,0
485,578369140625;	279,0;	0,0;	0,0
485,61474609375;	272,0;	0,0;	0,0
485,651123046875;	266,5;	0,0;	0,0
485,68743896484375;	263,5;	0,0;	0,0
485,7237854003906;	298,25;	0,0;	0,0
485,7601013183594;	282,0;	0,0;	0,0
485,7964172363281;	302,0;	0,0;	0,0
485,83270263671875;	302,25;	0,0;	0,0
485,8690185546875;	327,25;	0,0;	0,0
485,9053039550781;	334,5;	0,0;	0,0
485,9415588378906;	345,0;	0,0;	0,0
485,977783203125;	427,0;	0,0;	0,0
486,0140380859375;	325,0;	0,0;	0,0
486,0502624511719;	263,0;	0,0;	0,0
486,0864562988281;	294,75;	0,0;	0,0
486,1226806640625;	258,0;	0,0;	0,0
486,15887451171875;	266,5;	0,0;	0,0
486,1950378417969;	272,0;	0,0;	0,0
486,231201171875;	255,0;	0,0;	0,0
486,2673645019531;	268,25;	0,0;	0,0
486,3034973144531;	249,5;	0,0;	0,0
486,3396301269531;	260,25;	0,0;	0,0
486,3757019042969;	240,5;	0,0;	0,0
486,4118347167969;	260,5;	0,0;	0,0
486,4479064941406;	249,5;	0,0;	0,0
486,4840087890625;	262,25;	0,0;	0,0
486,52001953125;	250,5;	0,0;	0,0
486,55609130859375;	250,25;	0,0;	0,0
486,59210205078125;	261,25;	0,0;	0,0
486,6281433105469;	252,75;	0,0;	0,0
486,6641540527344;	246,5;	0,0;	0,0
486,7001647949219;	265,25;	0,0;	0,0
486,7361755371094;	274,5;	0,0;	0,0
486,7721252441406;	251,5;	0,0;	0,0
486,80810546875;	283,25;	0,0;	0,0
486,8440246582031;	280,75;	0,0;	0,0
486,8799743652344;	297,0;	0,0;	0,0
486,9158935546875;	347,75;	0,0;	0,0
486,9518127441406;	381,25;	0,0;	0,0
486,98773193359375;	396,0;	0,0;	0,0
487,0235900878906;	441,75;	0,0;	0,0
487,0594787597656;	479,0;	0,0;	0,0
487,0953369140625;	505,25;	0,0;	0,0
487,1311950683594;	641,5;	0,0;	0,0
487,1670227050781;	608,0;	0,0;	0,0
487,20281982421875;	481,75;	0,0;	0,0
487,2386474609375;	451,0;	0,0;	0,0
487,2744140625;	316,0;	0,0;	0,0
487,31024169921875;	271,75;	0,0;	0,0
487,3459777832031;	265,0;	0,0;	0,0
487,38177490234375;	272,75;	0,0;	0,0
487,41748046875;	259,5;	0,0;	0,0
487,4532470703125;	280,0;	0,0;	0,0
487,48895263671875;	259,75;	0,0;	0,0
487,524658203125;	282,5;	0,0;	0,0
487,56036376953125;	271,75;	0,0;	0,0
487,5960693359375;	288,75;	0,0;	0,0
487,6317138671875;	269,5;	0,0;	0,0
487,6673889160156;	298,25;	0,0;	0,0
487,7030029296875;	294,25;	0,0;	0,0
487,7386474609375;	317,25;	0,0;	0,0
487,7742919921875;	323,75;	0,0;	0,0
487,8099060058594;	379,75;	0,0;	0,0
487,84552001953125;	378,5;	0,0;	0,0
487,8810729980469;	296,5;	0,0;	0,0
487,9166564941406;	265,5;	0,0;	0,0
487,95220947265625;	262,75;	0,0;	0,0
487,9877624511719;	255,25;	0,0;	0,0
488,0232849121094;	267,25;	0,0;	0,0
488,0588073730469;	245,75;	0,0;	0,0
488,09429931640625;	258,75;	0,0;	0,0
488,12982177734375;	271,75;	0,0;	0,0
488,165283203125;	265,0;	0,0;	0,0
488,2007751464844;	270,5;	0,0;	0,0
488,2362060546875;	273,75;	0,0;	0,0
488,27166748046875;	264,75;	0,0;	0,0
488,30706787109375;	264,75;	0,0;	0,0
488,3424987792969;	254,0;	0,0;	0,0
488,3779296875;	258,75;	0,0;	0,0
488,4132995605469;	250,75;	0,0;	0,0
488,4486999511719;	271,25;	0,0;	0,0
488,48406982421875;	268,25;	0,0;	0,0
488,5194091796875;	250,0;	0,0;	0,0
488,55474853515625;	234,25;	0,0;	0,0
488,590087890625;	280,25;	0,0;	0,0
488,62542724609375;	284,0;	0,0;	0,0
488,66070556640625;	271,5;	0,0;	0,0
488,69598388671875;	280,5;	0,0;	0,0
488,7312927246094;	291,5;	0,0;	0,0
488,7665710449219;	279,0;	0,0;	0,0
488,80181884765625;	298,0;	0,0;	0,0
488,8370666503906;	340,75;	0,0;	0,0
488,8722839355469;	387,25;	0,0;	0,0
488,907470703125;	446,25;	0,0;	0,0
488,94268798828125;	474,0;	0,0;	0,0
488,9778747558594;	551,5;	0,0;	0,0
489,0130615234375;	559,75;	0,0;	0,0
489,0482177734375;	657,0;	0,0;	0,0
489,0834045410156;	785,5;	0,0;	0,0
489,1184997558594;	784,0;	0,0;	0,0
489,15362548828125;	855,75;	0,0;	0,0
489,1887512207031;	608,75;	0,0;	0,0
489,2238464355469;	335,5;	0,0;	0,0
489,2589416503906;	299,25;	0,0;	0,0
489,2940368652344;	292,0;	0,0;	0,0
489,3290710449219;	266,75;	0,0;	0,0
489,3641662597656;	271,75;	0,0;	0,0
489,399169921875;	264,75;	0,0;	0,0
489,4342346191406;	241,0;	0,0;	0,0
489,46923828125;	267,0;	0,0;	0,0
489,5042419433594;	248,25;	0,0;	0,0
489,5392150878906;	245,25;	0,0;	0,0
489,57421875;	255,25;	0,0;	0,0
489,6091613769531;	262,5;	0,0;	0,0
489,6441345214844;	246,5;	0,0;	0,0
489,6790466308594;	239,5;	0,0;	0,0
489,7139892578125;	254,0;	0,0;	0,0
489,7489013671875;	277,0;	0,0;	0,0
489,78375244140625;	263,25;	0,0;	0,0
489,8186950683594;	235,75;	0,0;	0,0
489,8535461425781;	257,75;	0,0;	0,0
489,888427734375;	250,0;	0,0;	0,0
489,9232482910156;	249,0;	0,0;	0,0
489,9580993652344;	249,5;	0,0;	0,0
489,9928894042969;	248,25;	0,0;	0,0
490,0277099609375;	248,25;	0,0;	0,0
490,0625305175781;	245,0;	0,0;	0,0
490,0972900390625;	275,5;	0,0;	0,0
490,132080078125;	254,25;	0,0;	0,0
490,1668395996094;	274,0;	0,0;	0,0
490,20159912109375;	277,0;	0,0;	0,0
490,236328125;	274,0;	0,0;	0,0
490,27105712890625;	295,25;	0,0;	0,0
490,3057556152344;	270,5;	0,0;	0,0
490,3404541015625;	335,5;	0,0;	0,0
490,3751525878906;	296,0;	0,0;	0,0
490,4097900390625;	275,0;	0,0;	0,0
490,4444580078125;	246,0;	0,0;	0,0
490,4790954589844;	261,25;	0,0;	0,0
490,51373291015625;	245,25;	0,0;	0,0
490,5483703613281;	252,0;	0,0;	0,0
490,58294677734375;	239,0;	0,0;	0,0
490,6175842285156;	254,0;	0,0;	0,0
490,652099609375;	241,5;	0,0;	0,0
490,68670654296875;	273,0;	0,0;	0,0
490,72125244140625;	248,5;	0,0;	0,0
490,75579833984375;	247,5;	0,0;	0,0
490,79034423828125;	274,5;	0,0;	0,0
490,8248291015625;	251,25;	0,0;	0,0
490,8593444824219;	246,0;	0,0;	0,0
490,89385986328125;	230,75;	0,0;	0,0
490,9283447265625;	271,75;	0,0;	0,0
490,9627685546875;	282,25;	0,0;	0,0
490,99725341796875;	276,5;	0,0;	0,0
491,03167724609375;	271,5;	0,0;	0,0
491,0661315917969;	254,25;	0,0;	0,0
491,10052490234375;	258,25;	0,0;	0,0
491,13494873046875;	262,5;	0,0;	0,0
491,1693115234375;	251,25;	0,0;	0,0
491,2037048339844;	266,25;	0,0;	0,0
491,238037109375;	247,5;	0,0;	0,0
491,2724304199219;	234,5;	0,0;	0,0
491,3067321777344;	253,75;	0,0;	0,0
491,3410949707031;	254,5;	0,0;	0,0
491,3753967285156;	250,5;	0,0;	0,0
491,4096984863281;	259,25;	0,0;	0,0
491,4439697265625;	263,75;	0,0;	0,0
491,478271484375;	233,25;	0,0;	0,0
491,51251220703125;	237,75;	0,0;	0,0
491,5467834472656;	228,25;	0,0;	0,0
491,58099365234375;	260,0;	0,0;	0,0
491,6152648925781;	311,25;	0,0;	0,0
491,6494445800781;	294,5;	0,0;	0,0
491,6836853027344;	328,25;	0,0;	0,0
491,71783447265625;	369,5;	0,0;	0,0
491,75201416015625;	381,5;	0,0;	0,0
491,7861633300781;	421,5;	0,0;	0,0
491,8203430175781;	495,75;	0,0;	0,0
491,85443115234375;	608,0;	0,0;	0,0
491,8885498046875;	709,75;	0,0;	0,0
491,9226989746094;	787,75;	0,0;	0,0
491,9568176269531;	681,75;	0,0;	0,0
491,9908752441406;	667,75;	0,0;	0,0
492,02490234375;	719,0;	0,0;	0,0
492,0589904785156;	959,25;	0,0;	0,0
492,093017578125;	750,75;	0,0;	0,0
492,1270751953125;	407,75;	0,0;	0,0
492,1610412597656;	309,25;	0,0;	0,0
492,1950988769531;	304,5;	0,0;	0,0
492,22906494140625;	263,0;	0,0;	0,0
492,2630615234375;	289,25;	0,0;	0,0
492,2969970703125;	273,25;	0,0;	0,0
492,33099365234375;	294,5;	0,0;	0,0
492,36492919921875;	300,25;	0,0;	0,0
492,39886474609375;	317,0;	0,0;	0,0
492,4327697753906;	276,5;	0,0;	0,0
492,4666748046875;	261,0;	0,0;	0,0
492,5005798339844;	267,75;	0,0;	0,0
492,5344543457031;	261,0;	0,0;	0,0
492,56829833984375;	256,5;	0,0;	0,0
492,60211181640625;	247,25;	0,0;	0,0
492,635986328125;	256,5;	0,0;	0,0
492,66986083984375;	243,75;	0,0;	0,0
492,7036437988281;	259,0;	0,0;	0,0
492,7373962402344;	242,75;	0,0;	0,0
492,771240234375;	240,0;	0,0;	0,0
492,8049621582031;	267,25;	0,0;	0,0
492,8387451171875;	249,75;	0,0;	0,0
492,87249755859375;	233,0;	0,0;	0,0
492,90625;	241,75;	0,0;	0,0
492,93994140625;	238,5;	0,0;	0,0
492,97369384765625;	250,0;	0,0;	0,0
493,00738525390625;	245,75;	0,0;	0,0
493,04107666015625;	252,0;	0,0;	0,0
493,0747375488281;	246,25;	0,0;	0,0
493,1083984375;	269,75;	0,0;	0,0
493,14202880859375;	245,5;	0,0;	0,0
493,1756896972656;	257,75;	0,0;	0,0
493,20928955078125;	266,5;	0,0;	0,0
493,242919921875;	291,0;	0,0;	0,0
493,2764892578125;	280,25;	0,0;	0,0
493,31011962890625;	283,25;	0,0;	0,0
493,3436584472656;	294,25;	0,0;	0,0
493,3772277832031;	289,25;	0,0;	0,0
493,4107360839844;	344,5;	0,0;	0,0
493,4442443847656;	314,5;	0,0;	0,0
493,4778137207031;	254,5;	0,0;	0,0
493,5113525390625;	260,0;	0,0;	0,0
493,5447998046875;	256,5;	0,0;	0,0
493,5782470703125;	255,75;	0,0;	0,0
493,61175537109375;	267,75;	0,0;	0,0
493,6451721191406;	0,0;	0,0;	0,0
