-0.5	0.5
Integration time [ms]:	1.05
Averaging Nr. [scans]:1
Smoothing Nr. [pixels]:0
Data measured with spectrometer [name]:b'1703279U8'
Wave	;Sample	;Dark	;Reference	;Scope	
[nm]	;[counts]	;[counts]	;[counts]	
 
725,3621826171875;	363,75;	0,0;	0,0
725,4813842773438;	370,25;	0,0;	0,0
725,6005249023438;	366,75;	0,0;	0,0
725,7197265625;	366,75;	0,0;	0,0
725,8388671875;	388,5;	0,0;	0,0
725,9579467773438;	419,75;	0,0;	0,0
726,0770874023438;	409,5;	0,0;	0,0
726,1961669921875;	388,75;	0,0;	0,0
726,315185546875;	401,25;	0,0;	0,0
726,4342651367188;	402,75;	0,0;	0,0
726,5532836914062;	389,25;	0,0;	0,0
726,6723022460938;	413,25;	0,0;	0,0
726,7913208007812;	396,75;	0,0;	0,0
726,9102783203125;	403,0;	0,0;	0,0
727,0292358398438;	401,75;	0,0;	0,0
727,148193359375;	408,5;	0,0;	0,0
727,26708984375;	426,0;	0,0;	0,0
727,385986328125;	378,25;	0,0;	0,0
727,5048828125;	393,5;	0,0;	0,0
727,6237182617188;	395,75;	0,0;	0,0
727,7426147460938;	386,75;	0,0;	0,0
727,8614501953125;	411,0;	0,0;	0,0
727,9801635742188;	411,5;	0,0;	0,0
728,0989379882812;	408,25;	0,0;	0,0
728,2177124023438;	391,25;	0,0;	0,0
728,3364868164062;	429,75;	0,0;	0,0
728,4552612304688;	421,0;	0,0;	0,0
728,573974609375;	390,75;	0,0;	0,0
728,6926879882812;	406,5;	0,0;	0,0
728,8113403320312;	420,5;	0,0;	0,0
728,9299926757812;	432,25;	0,0;	0,0
729,0486450195312;	417,5;	0,0;	0,0
729,1672973632812;	427,25;	0,0;	0,0
729,285888671875;	448,75;	0,0;	0,0
729,4044799804688;	421,75;	0,0;	0,0
729,5230712890625;	417,5;	0,0;	0,0
729,6416625976562;	396,25;	0,0;	0,0
729,7601928710938;	400,5;	0,0;	0,0
729,8787231445312;	406,75;	0,0;	0,0
729,9971313476562;	398,25;	0,0;	0,0
730,1156005859375;	432,75;	0,0;	0,0
730,2340698242188;	418,0;	0,0;	0,0
730,3525390625;	388,25;	0,0;	0,0
730,470947265625;	428,25;	0,0;	0,0
730,58935546875;	415,5;	0,0;	0,0
730,707763671875;	448,25;	0,0;	0,0
730,826171875;	397,5;	0,0;	0,0
730,9445190429688;	416,5;	0,0;	0,0
731,0628662109375;	415,5;	0,0;	0,0
731,18115234375;	394,25;	0,0;	0,0
731,2994995117188;	419,5;	0,0;	0,0
731,4177856445312;	401,25;	0,0;	0,0
731,5360107421875;	399,25;	0,0;	0,0
731,654296875;	414,75;	0,0;	0,0
731,7725219726562;	420,0;	0,0;	0,0
731,8906860351562;	423,25;	0,0;	0,0
732,0088500976562;	418,5;	0,0;	0,0
732,1270141601562;	392,0;	0,0;	0,0
732,2451782226562;	420,25;	0,0;	0,0
732,3633422851562;	454,5;	0,0;	0,0
732,4814453125;	497,5;	0,0;	0,0
732,5995483398438;	467,75;	0,0;	0,0
732,7176513671875;	415,5;	0,0;	0,0
732,8357543945312;	417,0;	0,0;	0,0
732,9537963867188;	405,75;	0,0;	0,0
733,07177734375;	404,25;	0,0;	0,0
733,189697265625;	434,25;	0,0;	0,0
733,3076782226562;	395,75;	0,0;	0,0
733,4256591796875;	427,0;	0,0;	0,0
733,5436401367188;	399,75;	0,0;	0,0
733,6615600585938;	394,0;	0,0;	0,0
733,7794799804688;	412,0;	0,0;	0,0
733,8973999023438;	424,75;	0,0;	0,0
734,0152587890625;	403,0;	0,0;	0,0
734,1331176757812;	385,75;	0,0;	0,0
734,2509765625;	388,5;	0,0;	0,0
734,3687744140625;	405,5;	0,0;	0,0
734,486572265625;	437,75;	0,0;	0,0
734,6043701171875;	399,5;	0,0;	0,0
734,72216796875;	408,75;	0,0;	0,0
734,8399047851562;	421,75;	0,0;	0,0
734,9576416015625;	420,75;	0,0;	0,0
735,0753173828125;	432,25;	0,0;	0,0
735,1930541992188;	438,25;	0,0;	0,0
735,3107299804688;	428,75;	0,0;	0,0
735,4283447265625;	420,25;	0,0;	0,0
735,5460205078125;	427,75;	0,0;	0,0
735,6636352539062;	420,0;	0,0;	0,0
735,78125;	387,5;	0,0;	0,0
735,8988647460938;	416,75;	0,0;	0,0
736,016357421875;	443,5;	0,0;	0,0
736,1339111328125;	404,25;	0,0;	0,0
736,25146484375;	409,0;	0,0;	0,0
736,3690185546875;	411,75;	0,0;	0,0
736,4864501953125;	441,75;	0,0;	0,0
736,6039428710938;	401,75;	0,0;	0,0
736,7213745117188;	419,0;	0,0;	0,0
736,8388671875;	407,5;	0,0;	0,0
736,9562377929688;	445,25;	0,0;	0,0
737,0736083984375;	431,75;	0,0;	0,0
737,1910400390625;	422,75;	0,0;	0,0
737,3084106445312;	418,5;	0,0;	0,0
737,4257202148438;	424,75;	0,0;	0,0
737,5430297851562;	419,5;	0,0;	0,0
737,660400390625;	410,25;	0,0;	0,0
737,7776489257812;	433,25;	0,0;	0,0
737,8948974609375;	402,75;	0,0;	0,0
738,01220703125;	417,75;	0,0;	0,0
738,1294555664062;	431,25;	0,0;	0,0
738,24658203125;	438,0;	0,0;	0,0
738,36376953125;	433,0;	0,0;	0,0
738,48095703125;	434,75;	0,0;	0,0
738,5980834960938;	449,25;	0,0;	0,0
738,7152709960938;	447,0;	0,0;	0,0
738,8323974609375;	503,0;	0,0;	0,0
738,949462890625;	485,5;	0,0;	0,0
739,0665893554688;	455,25;	0,0;	0,0
739,18359375;	404,0;	0,0;	0,0
739,3006591796875;	427,0;	0,0;	0,0
739,417724609375;	423,5;	0,0;	0,0
739,53466796875;	425,25;	0,0;	0,0
739,6517333984375;	407,0;	0,0;	0,0
739,7686767578125;	396,5;	0,0;	0,0
739,8856201171875;	451,0;	0,0;	0,0
740,0025634765625;	435,75;	0,0;	0,0
740,1195068359375;	463,5;	0,0;	0,0
740,2363891601562;	398,0;	0,0;	0,0
740,353271484375;	443,25;	0,0;	0,0
740,4701538085938;	400,5;	0,0;	0,0
740,5869750976562;	449,25;	0,0;	0,0
740,7037963867188;	447,125;	0,0;	0,0
740,8206176757812;	445,0;	0,0;	0,0
740,9373779296875;	512,0;	0,0;	0,0
741,05419921875;	529,25;	0,0;	0,0
741,1708984375;	446,5;	0,0;	0,0
741,2876586914062;	433,75;	0,0;	0,0
741,4043579101562;	443,0;	0,0;	0,0
741,5211181640625;	423,0;	0,0;	0,0
741,6377563476562;	434,5;	0,0;	0,0
741,7544555664062;	468,75;	0,0;	0,0
741,8710327148438;	480,25;	0,0;	0,0
741,9876098632812;	481,0;	0,0;	0,0
742,104248046875;	583,5;	0,0;	0,0
742,2208251953125;	779,75;	0,0;	0,0
742,33740234375;	917,75;	0,0;	0,0
742,4539794921875;	695,5;	0,0;	0,0
742,5704956054688;	538,0;	0,0;	0,0
742,68701171875;	466,75;	0,0;	0,0
742,8035278320312;	470,75;	0,0;	0,0
742,9199829101562;	471,25;	0,0;	0,0
743,036376953125;	431,75;	0,0;	0,0
743,1528930664062;	442,5;	0,0;	0,0
743,2692260742188;	426,25;	0,0;	0,0
743,3856201171875;	423,25;	0,0;	0,0
743,5020141601562;	432,5;	0,0;	0,0
743,6183471679688;	482,25;	0,0;	0,0
743,7346801757812;	488,25;	0,0;	0,0
743,8510131835938;	565,0;	0,0;	0,0
743,9673461914062;	622,5;	0,0;	0,0
744,0835571289062;	1162,25;	0,0;	0,0
744,1998901367188;	1531,5;	0,0;	0,0
744,3161010742188;	978,0;	0,0;	0,0
744,4323120117188;	742,5;	0,0;	0,0
744,548583984375;	629,25;	0,0;	0,0
744,664794921875;	503,5;	0,0;	0,0
744,7809448242188;	475,25;	0,0;	0,0
744,8970947265625;	443,0;	0,0;	0,0
745,0132446289062;	434,75;	0,0;	0,0
745,1293334960938;	427,0;	0,0;	0,0
745,2454223632812;	428,75;	0,0;	0,0
745,3615112304688;	438,5;	0,0;	0,0
745,4776000976562;	426,5;	0,0;	0,0
745,5936279296875;	461,75;	0,0;	0,0
745,7096557617188;	482,5;	0,0;	0,0
745,82568359375;	444,75;	0,0;	0,0
745,941650390625;	449,25;	0,0;	0,0
746,0576171875;	432,75;	0,0;	0,0
746,173583984375;	482,75;	0,0;	0,0
746,28955078125;	471,75;	0,0;	0,0
746,4054565429688;	538,25;	0,0;	0,0
746,5213012695312;	706,0;	0,0;	0,0
746,63720703125;	1099,75;	0,0;	0,0
746,7530517578125;	2034,25;	0,0;	0,0
746,868896484375;	1705,25;	0,0;	0,0
746,9846801757812;	867,0;	0,0;	0,0
747,1004638671875;	601,0;	0,0;	0,0
747,2162475585938;	542,25;	0,0;	0,0
747,3320922851562;	482,0;	0,0;	0,0
747,4478149414062;	500,5;	0,0;	0,0
747,5635375976562;	472,5;	0,0;	0,0
747,6792602539062;	488,5;	0,0;	0,0
747,794921875;	470,0;	0,0;	0,0
747,9105834960938;	481,5;	0,0;	0,0
748,0262451171875;	469,25;	0,0;	0,0
748,1419067382812;	426,75;	0,0;	0,0
748,2574462890625;	453,75;	0,0;	0,0
748,373046875;	453,5;	0,0;	0,0
748,488525390625;	420,25;	0,0;	0,0
748,6041259765625;	416,5;	0,0;	0,0
748,7196655273438;	416,75;	0,0;	0,0
748,835205078125;	445,25;	0,0;	0,0
748,95068359375;	434,25;	0,0;	0,0
749,066162109375;	441,0;	0,0;	0,0
749,181640625;	435,75;	0,0;	0,0
749,297119140625;	449,75;	0,0;	0,0
749,4125366210938;	611,5;	0,0;	0,0
749,5278930664062;	515,0;	0,0;	0,0
749,6432495117188;	429,5;	0,0;	0,0
749,7586669921875;	450,75;	0,0;	0,0
749,8740234375;	422,75;	0,0;	0,0
749,9893798828125;	436,25;	0,0;	0,0
750,1046752929688;	437,0;	0,0;	0,0
750,2199096679688;	417,25;	0,0;	0,0
750,335205078125;	422,25;	0,0;	0,0
750,4505004882812;	423,75;	0,0;	0,0
750,5657348632812;	468,0;	0,0;	0,0
750,680908203125;	420,0;	0,0;	0,0
750,796142578125;	441,5;	0,0;	0,0
750,9113159179688;	533,0;	0,0;	0,0
751,0264282226562;	783,25;	0,0;	0,0
751,1416015625;	510,5;	0,0;	0,0
751,2567749023438;	408,5;	0,0;	0,0
751,371826171875;	448,75;	0,0;	0,0
751,4869384765625;	439,0;	0,0;	0,0
751,6019897460938;	428,0;	0,0;	0,0
751,717041015625;	407,25;	0,0;	0,0
751,8320922851562;	424,25;	0,0;	0,0
751,9470825195312;	412,25;	0,0;	0,0
752,0620727539062;	408,0;	0,0;	0,0
752,1770629882812;	389,5;	0,0;	0,0
752,2919921875;	407,5;	0,0;	0,0
752,4069213867188;	432,0;	0,0;	0,0
752,5218505859375;	395,0;	0,0;	0,0
752,63671875;	438,0;	0,0;	0,0
752,7515869140625;	387,25;	0,0;	0,0
752,866455078125;	417,75;	0,0;	0,0
752,9813232421875;	438,0;	0,0;	0,0
753,0961303710938;	430,5;	0,0;	0,0
753,2108764648438;	388,5;	0,0;	0,0
753,32568359375;	414,5;	0,0;	0,0
753,4404296875;	415,75;	0,0;	0,0
753,55517578125;	416,5;	0,0;	0,0
753,669921875;	419,75;	0,0;	0,0
753,7846069335938;	389,25;	0,0;	0,0
753,8992919921875;	399,25;	0,0;	0,0
754,0139770507812;	400,25;	0,0;	0,0
754,128662109375;	408,25;	0,0;	0,0
754,2432250976562;	416,25;	0,0;	0,0
754,3578491210938;	408,5;	0,0;	0,0
754,4724731445312;	415,5;	0,0;	0,0
754,5870361328125;	431,5;	0,0;	0,0
754,7015991210938;	436,0;	0,0;	0,0
754,8161010742188;	403,0;	0,0;	0,0
754,9306640625;	400,75;	0,0;	0,0
755,045166015625;	408,25;	0,0;	0,0
755,1596069335938;	412,25;	0,0;	0,0
755,2740478515625;	411,5;	0,0;	0,0
755,3885498046875;	408,0;	0,0;	0,0
755,5029907226562;	442,75;	0,0;	0,0
755,6173706054688;	409,0;	0,0;	0,0
755,7317504882812;	411,5;	0,0;	0,0
755,8460693359375;	427,25;	0,0;	0,0
755,96044921875;	389,5;	0,0;	0,0
756,0748291015625;	401,75;	0,0;	0,0
756,1890869140625;	395,5;	0,0;	0,0
756,3034057617188;	409,25;	0,0;	0,0
756,4176635742188;	411,0;	0,0;	0,0
756,5319213867188;	405,25;	0,0;	0,0
756,6461181640625;	411,75;	0,0;	0,0
756,7603759765625;	438,75;	0,0;	0,0
756,8745727539062;	438,0;	0,0;	0,0
756,9887084960938;	413,0;	0,0;	0,0
757,1029052734375;	439,0;	0,0;	0,0
757,217041015625;	409,25;	0,0;	0,0
757,3311157226562;	404,25;	0,0;	0,0
757,4452514648438;	401,5;	0,0;	0,0
757,559326171875;	398,5;	0,0;	0,0
757,6734008789062;	427,5;	0,0;	0,0
757,7874145507812;	402,5;	0,0;	0,0
757,9013671875;	444,5;	0,0;	0,0
758,0154418945312;	421,25;	0,0;	0,0
758,1293334960938;	451,25;	0,0;	0,0
758,2433471679688;	457,25;	0,0;	0,0
758,3572998046875;	446,25;	0,0;	0,0
758,4712524414062;	507,25;	0,0;	0,0
758,5850830078125;	475,5;	0,0;	0,0
758,698974609375;	440,0;	0,0;	0,0
758,8128662109375;	421,0;	0,0;	0,0
758,9267578125;	379,0;	0,0;	0,0
759,04052734375;	409,0;	0,0;	0,0
759,1543579101562;	408,25;	0,0;	0,0
759,2681884765625;	406,0;	0,0;	0,0
759,3819580078125;	421,5;	0,0;	0,0
759,4956665039062;	429,0;	0,0;	0,0
759,6094360351562;	390,0;	0,0;	0,0
759,72314453125;	409,5;	0,0;	0,0
759,8368530273438;	400,5;	0,0;	0,0
759,9505615234375;	411,25;	0,0;	0,0
760,064208984375;	421,0;	0,0;	0,0
760,1778564453125;	408,0;	0,0;	0,0
760,2914428710938;	431,75;	0,0;	0,0
760,4050903320312;	415,75;	0,0;	0,0
760,5186157226562;	441,0;	0,0;	0,0
760,6322021484375;	427,0;	0,0;	0,0
760,7457275390625;	418,0;	0,0;	0,0
760,8593139648438;	398,75;	0,0;	0,0
760,9727783203125;	445,75;	0,0;	0,0
761,0863037109375;	418,0;	0,0;	0,0
761,1997680664062;	407,5;	0,0;	0,0
761,313232421875;	435,5;	0,0;	0,0
761,4266357421875;	442,25;	0,0;	0,0
761,5400390625;	411,75;	0,0;	0,0
761,6534423828125;	418,5;	0,0;	0,0
761,766845703125;	452,75;	0,0;	0,0
761,880126953125;	443,25;	0,0;	0,0
761,9935302734375;	461,5;	0,0;	0,0
762,1068115234375;	436,75;	0,0;	0,0
762,2200927734375;	447,75;	0,0;	0,0
762,3333740234375;	454,25;	0,0;	0,0
762,4466552734375;	404,5;	0,0;	0,0
762,5598754882812;	423,25;	0,0;	0,0
762,673095703125;	439,25;	0,0;	0,0
762,7863159179688;	446,25;	0,0;	0,0
762,8994750976562;	440,0;	0,0;	0,0
763,0126342773438;	465,75;	0,0;	0,0
763,1257934570312;	487,0;	0,0;	0,0
763,2388916015625;	438,0;	0,0;	0,0
763,3519897460938;	504,0;	0,0;	0,0
763,465087890625;	473,0;	0,0;	0,0
763,578125;	497,75;	0,0;	0,0
763,691162109375;	481,5;	0,0;	0,0
763,80419921875;	491,5;	0,0;	0,0
763,917236328125;	466,5;	0,0;	0,0
764,0302124023438;	504,5;	0,0;	0,0
764,1431884765625;	550,75;	0,0;	0,0
764,256103515625;	552,25;	0,0;	0,0
764,3690795898438;	505,25;	0,0;	0,0
764,4819946289062;	533,75;	0,0;	0,0
764,5948486328125;	599,75;	0,0;	0,0
764,707763671875;	584,25;	0,0;	0,0
764,820556640625;	639,0;	0,0;	0,0
764,9334106445312;	622,5;	0,0;	0,0
765,0462646484375;	704,25;	0,0;	0,0
765,1590576171875;	735,75;	0,0;	0,0
765,2718505859375;	843,0;	0,0;	0,0
765,384521484375;	941,5;	0,0;	0,0
765,497314453125;	1037,25;	0,0;	0,0
765,6100463867188;	1277,5;	0,0;	0,0
765,7227783203125;	1534,75;	0,0;	0,0
765,8353881835938;	2096,0;	0,0;	0,0
765,9480590820312;	3095,75;	0,0;	0,0
766,0607299804688;	4792,0;	0,0;	0,0
766,17333984375;	8382,25;	0,0;	0,0
766,2859497070312;	14929,25;	0,0;	0,0
766,3984985351562;	16383,75;	0,0;	0,0
766,5111083984375;	14757,75;	0,0;	0,0
766,6236572265625;	7790,5;	0,0;	0,0
766,7361450195312;	4451,0;	0,0;	0,0
766,8486938476562;	2864,0;	0,0;	0,0
766,961181640625;	2073,75;	0,0;	0,0
767,0736694335938;	1653,25;	0,0;	0,0
767,1860961914062;	1348,75;	0,0;	0,0
767,2984619140625;	1156,0;	0,0;	0,0
767,4109497070312;	1000,5;	0,0;	0,0
767,5233154296875;	843,75;	0,0;	0,0
767,6357421875;	816,0;	0,0;	0,0
767,748046875;	749,25;	0,0;	0,0
767,8602905273438;	672,0;	0,0;	0,0
767,97265625;	751,25;	0,0;	0,0
768,0849609375;	692,25;	0,0;	0,0
768,1972045898438;	662,5;	0,0;	0,0
768,3094482421875;	657,5;	0,0;	0,0
768,4216918945312;	637,5;	0,0;	0,0
768,533935546875;	667,0;	0,0;	0,0
768,6461181640625;	687,5;	0,0;	0,0
768,75830078125;	706,25;	0,0;	0,0
768,8704223632812;	761,25;	0,0;	0,0
768,9826049804688;	924,25;	0,0;	0,0
769,0947265625;	980,0;	0,0;	0,0
769,2068481445312;	1154,25;	0,0;	0,0
769,3189086914062;	1526,0;	0,0;	0,0
769,4309692382812;	2353,5;	0,0;	0,0
769,5430297851562;	4049,5;	0,0;	0,0
769,655029296875;	8470,0;	0,0;	0,0
769,7670288085938;	15529,0;	0,0;	0,0
769,8790283203125;	13994,0;	0,0;	0,0
769,990966796875;	6394,75;	0,0;	0,0
770,1029663085938;	3162,75;	0,0;	0,0
770,2149047851562;	1970,0;	0,0;	0,0
770,3267822265625;	1421,0;	0,0;	0,0
770,4385986328125;	1129,5;	0,0;	0,0
770,5504760742188;	962,75;	0,0;	0,0
770,662353515625;	829,25;	0,0;	0,0
770,7742309570312;	765,0;	0,0;	0,0
770,8860473632812;	688,0;	0,0;	0,0
770,997802734375;	669,25;	0,0;	0,0
771,1095581054688;	634,75;	0,0;	0,0
771,2213134765625;	610,0;	0,0;	0,0
771,3330078125;	541,5;	0,0;	0,0
771,4447631835938;	521,0;	0,0;	0,0
771,5564575195312;	528,5;	0,0;	0,0
771,6680908203125;	528,75;	0,0;	0,0
771,77978515625;	432,5;	0,0;	0,0
771,8914184570312;	492,25;	0,0;	0,0
772,0030517578125;	520,0;	0,0;	0,0
772,1146240234375;	468,75;	0,0;	0,0
772,2261962890625;	527,25;	0,0;	0,0
772,3377685546875;	470,25;	0,0;	0,0
772,4492797851562;	470,0;	0,0;	0,0
772,5608520507812;	445,0;	0,0;	0,0
772,6722412109375;	428,75;	0,0;	0,0
772,78369140625;	446,0;	0,0;	0,0
772,8952026367188;	453,5;	0,0;	0,0
773,0066528320312;	444,0;	0,0;	0,0
773,1181030273438;	413,5;	0,0;	0,0
773,2294921875;	443,25;	0,0;	0,0
773,3408203125;	434,0;	0,0;	0,0
773,4522094726562;	445,75;	0,0;	0,0
773,5635986328125;	468,0;	0,0;	0,0
773,6748657226562;	441,75;	0,0;	0,0
773,7861938476562;	407,0;	0,0;	0,0
773,8974609375;	419,0;	0,0;	0,0
774,0087280273438;	429,25;	0,0;	0,0
774,1199340820312;	422,5;	0,0;	0,0
774,231201171875;	411,25;	0,0;	0,0
774,3424072265625;	405,0;	0,0;	0,0
774,45361328125;	388,0;	0,0;	0,0
774,5647583007812;	409,5;	0,0;	0,0
774,6759033203125;	430,75;	0,0;	0,0
774,7870483398438;	430,5;	0,0;	0,0
774,8981323242188;	437,0;	0,0;	0,0
775,0092163085938;	386,5;	0,0;	0,0
775,1203002929688;	399,25;	0,0;	0,0
775,2313232421875;	417,75;	0,0;	0,0
775,3423461914062;	391,25;	0,0;	0,0
775,453369140625;	424,0;	0,0;	0,0
775,5643920898438;	433,25;	0,0;	0,0
775,6753540039062;	402,0;	0,0;	0,0
775,7863159179688;	399,75;	0,0;	0,0
775,897216796875;	401,5;	0,0;	0,0
776,0081176757812;	402,5;	0,0;	0,0
776,1190185546875;	416,0;	0,0;	0,0
776,2298583984375;	435,0;	0,0;	0,0
776,3407592773438;	472,75;	0,0;	0,0
776,4515991210938;	471,25;	0,0;	0,0
776,5623779296875;	500,25;	0,0;	0,0
776,6732177734375;	573,5;	0,0;	0,0
776,7839965820312;	675,5;	0,0;	0,0
776,8947143554688;	931,25;	0,0;	0,0
777,0054931640625;	1900,0;	0,0;	0,0
777,1161499023438;	3139,0;	0,0;	0,0
777,2269287109375;	2748,25;	0,0;	0,0
777,3375854492188;	2895,25;	0,0;	0,0
777,4481201171875;	2478,5;	0,0;	0,0
777,558837890625;	1475,0;	0,0;	0,0
777,6693725585938;	780,0;	0,0;	0,0
777,7799682617188;	566,0;	0,0;	0,0
777,890625;	513,5;	0,0;	0,0
778,0011596679688;	522,25;	0,0;	0,0
778,1116943359375;	430,5;	0,0;	0,0
778,2222290039062;	425,0;	0,0;	0,0
778,3327026367188;	392,0;	0,0;	0,0
778,4431762695312;	384,25;	0,0;	0,0
778,5536499023438;	384,0;	0,0;	0,0
778,6640625;	376,25;	0,0;	0,0
778,7744750976562;	391,5;	0,0;	0,0
778,8848876953125;	370,5;	0,0;	0,0
778,9953002929688;	391,5;	0,0;	0,0
779,1056518554688;	418,5;	0,0;	0,0
779,2160034179688;	415,0;	0,0;	0,0
779,3263549804688;	368,75;	0,0;	0,0
779,4365844726562;	396,25;	0,0;	0,0
779,546875;	405,25;	0,0;	0,0
779,6571655273438;	405,75;	0,0;	0,0
779,7673950195312;	529,5;	0,0;	0,0
779,8776245117188;	949,25;	0,0;	0,0
779,9878540039062;	1071,5;	0,0;	0,0
780,0980224609375;	434,5;	0,0;	0,0
780,2081909179688;	379,25;	0,0;	0,0
780,3182983398438;	377,25;	0,0;	0,0
780,428466796875;	373,5;	0,0;	0,0
780,53857421875;	360,25;	0,0;	0,0
780,6486206054688;	342,25;	0,0;	0,0
780,7587280273438;	372,5;	0,0;	0,0
780,8687744140625;	356,0;	0,0;	0,0
780,978759765625;	355,75;	0,0;	0,0
781,0888061523438;	374,5;	0,0;	0,0
781,1987915039062;	357,0;	0,0;	0,0
781,3087768554688;	378,25;	0,0;	0,0
781,418701171875;	330,0;	0,0;	0,0
781,5286254882812;	335,75;	0,0;	0,0
781,6385498046875;	355,25;	0,0;	0,0
781,7484741210938;	350,5;	0,0;	0,0
781,8583374023438;	350,0;	0,0;	0,0
781,9681396484375;	348,5;	0,0;	0,0
782,0780029296875;	343,75;	0,0;	0,0
782,187744140625;	365,0;	0,0;	0,0
782,2975463867188;	337,75;	0,0;	0,0
782,4072875976562;	362,5;	0,0;	0,0
782,51708984375;	345,75;	0,0;	0,0
782,6267700195312;	337,75;	0,0;	0,0
782,7365112304688;	351,0;	0,0;	0,0
782,84619140625;	379,75;	0,0;	0,0
782,955810546875;	384,75;	0,0;	0,0
783,0654907226562;	395,75;	0,0;	0,0
783,1751098632812;	438,75;	0,0;	0,0
783,2847290039062;	364,5;	0,0;	0,0
783,394287109375;	338,25;	0,0;	0,0
783,50390625;	361,75;	0,0;	0,0
783,6134643554688;	354,75;	0,0;	0,0
783,7229614257812;	367,25;	0,0;	0,0
783,83251953125;	364,25;	0,0;	0,0
783,9420166015625;	356,0;	0,0;	0,0
784,0514526367188;	348,75;	0,0;	0,0
784,1609497070312;	340,25;	0,0;	0,0
784,2703247070312;	347,0;	0,0;	0,0
784,3797607421875;	325,0;	0,0;	0,0
784,4891967773438;	357,5;	0,0;	0,0
784,5985717773438;	352,75;	0,0;	0,0
784,7078857421875;	341,5;	0,0;	0,0
784,8172607421875;	333,5;	0,0;	0,0
784,9265747070312;	341,0;	0,0;	0,0
785,0358276367188;	328,75;	0,0;	0,0
785,1451416015625;	314,25;	0,0;	0,0
785,2543334960938;	348,75;	0,0;	0,0
785,3636474609375;	356,75;	0,0;	0,0
785,4728393554688;	356,0;	0,0;	0,0
785,58203125;	332,75;	0,0;	0,0
785,691162109375;	335,5;	0,0;	0,0
785,80029296875;	344,25;	0,0;	0,0
785,9094848632812;	333,75;	0,0;	0,0
786,0186157226562;	343,5;	0,0;	0,0
786,127685546875;	341,75;	0,0;	0,0
786,23681640625;	344,25;	0,0;	0,0
786,3458251953125;	352,0;	0,0;	0,0
786,454833984375;	344,25;	0,0;	0,0
786,5638427734375;	337,75;	0,0;	0,0
786,6727905273438;	348,75;	0,0;	0,0
786,7817993164062;	340,0;	0,0;	0,0
786,8907470703125;	348,0;	0,0;	0,0
786,999755859375;	350,0;	0,0;	0,0
787,108642578125;	346,25;	0,0;	0,0
787,217529296875;	353,75;	0,0;	0,0
787,326416015625;	324,0;	0,0;	0,0
787,4352416992188;	331,5;	0,0;	0,0
787,5440063476562;	339,0;	0,0;	0,0
787,65283203125;	334,0;	0,0;	0,0
787,7616577148438;	351,75;	0,0;	0,0
787,8704223632812;	332,5;	0,0;	0,0
787,979248046875;	350,75;	0,0;	0,0
788,0879516601562;	332,5;	0,0;	0,0
788,1966552734375;	332,5;	0,0;	0,0
788,3053588867188;	358,75;	0,0;	0,0
788,4140625;	353,75;	0,0;	0,0
788,522705078125;	339,25;	0,0;	0,0
788,63134765625;	336,25;	0,0;	0,0
788,7399291992188;	326,25;	0,0;	0,0
788,8485717773438;	350,25;	0,0;	0,0
788,9571533203125;	353,25;	0,0;	0,0
789,065673828125;	347,0;	0,0;	0,0
789,1741943359375;	324,5;	0,0;	0,0
789,28271484375;	351,0;	0,0;	0,0
789,3912353515625;	346,0;	0,0;	0,0
789,499755859375;	330,5;	0,0;	0,0
789,608154296875;	346,0;	0,0;	0,0
789,7166137695312;	334,75;	0,0;	0,0
789,8250732421875;	363,0;	0,0;	0,0
789,9334106445312;	327,0;	0,0;	0,0
790,0418090820312;	331,75;	0,0;	0,0
790,150146484375;	318,5;	0,0;	0,0
790,2584838867188;	354,25;	0,0;	0,0
790,3667602539062;	347,0;	0,0;	0,0
790,4751586914062;	347,5;	0,0;	0,0
790,5833740234375;	319,75;	0,0;	0,0
790,691650390625;	336,75;	0,0;	0,0
790,7998657226562;	338,5;	0,0;	0,0
790,9081420898438;	355,0;	0,0;	0,0
791,0162963867188;	345,25;	0,0;	0,0
791,1244506835938;	329,25;	0,0;	0,0
791,2326049804688;	337,75;	0,0;	0,0
791,3406982421875;	347,75;	0,0;	0,0
791,4488525390625;	352,5;	0,0;	0,0
791,5569458007812;	336,0;	0,0;	0,0
791,6650390625;	340,5;	0,0;	0,0
791,7730102539062;	343,75;	0,0;	0,0
791,881103515625;	322,75;	0,0;	0,0
791,9890747070312;	367,75;	0,0;	0,0
792,0971069335938;	343,0;	0,0;	0,0
792,205078125;	355,25;	0,0;	0,0
792,31298828125;	325,75;	0,0;	0,0
792,4209594726562;	350,75;	0,0;	0,0
792,5288696289062;	313,25;	0,0;	0,0
792,6367797851562;	330,5;	0,0;	0,0
792,74462890625;	327,0;	0,0;	0,0
792,8524780273438;	339,75;	0,0;	0,0
792,9603271484375;	324,25;	0,0;	0,0
793,068115234375;	348,0;	0,0;	0,0
793,1759033203125;	327,75;	0,0;	0,0
793,2837524414062;	345,0;	0,0;	0,0
793,3914794921875;	343,25;	0,0;	0,0
793,4992065429688;	338,0;	0,0;	0,0
793,60693359375;	410,0;	0,0;	0,0
793,714599609375;	411,25;	0,0;	0,0
793,822265625;	357,0;	0,0;	0,0
793,9299926757812;	367,0;	0,0;	0,0
794,03759765625;	379,5;	0,0;	0,0
794,1452026367188;	358,5;	0,0;	0,0
794,2528076171875;	346,0;	0,0;	0,0
794,3603515625;	388,5;	0,0;	0,0
794,4678955078125;	490,0;	0,0;	0,0
794,575439453125;	644,25;	0,0;	0,0
794,6829833984375;	984,75;	0,0;	0,0
794,7904663085938;	567,0;	0,0;	0,0
794,89794921875;	413,75;	0,0;	0,0
795,00537109375;	460,5;	0,0;	0,0
795,11279296875;	493,0;	0,0;	0,0
795,2202758789062;	418,25;	0,0;	0,0
795,3275756835938;	358,0;	0,0;	0,0
795,4349975585938;	355,75;	0,0;	0,0
795,5422973632812;	342,75;	0,0;	0,0
795,649658203125;	342,5;	0,0;	0,0
795,7569580078125;	344,5;	0,0;	0,0
795,8642578125;	339,0;	0,0;	0,0
795,9714965820312;	325,75;	0,0;	0,0
796,0787963867188;	314,75;	0,0;	0,0
796,1859741210938;	323,75;	0,0;	0,0
796,293212890625;	327,75;	0,0;	0,0
796,400390625;	332,0;	0,0;	0,0
796,507568359375;	315,25;	0,0;	0,0
796,6146850585938;	309,75;	0,0;	0,0
796,7218017578125;	312,75;	0,0;	0,0
796,8289794921875;	330,25;	0,0;	0,0
796,93603515625;	304,5;	0,0;	0,0
797,0430908203125;	306,5;	0,0;	0,0
797,150146484375;	332,75;	0,0;	0,0
797,2572021484375;	328,25;	0,0;	0,0
797,3641967773438;	310,5;	0,0;	0,0
797,47119140625;	317,75;	0,0;	0,0
797,578125;	324,25;	0,0;	0,0
797,68505859375;	308,25;	0,0;	0,0
797,7919921875;	299,0;	0,0;	0,0
797,89892578125;	326,25;	0,0;	0,0
798,0057983398438;	332,25;	0,0;	0,0
798,1126708984375;	303,5;	0,0;	0,0
798,219482421875;	302,0;	0,0;	0,0
798,3263549804688;	337,5;	0,0;	0,0
798,4331665039062;	315,5;	0,0;	0,0
798,5399169921875;	317,0;	0,0;	0,0
798,646728515625;	355,75;	0,0;	0,0
798,75341796875;	322,0;	0,0;	0,0
798,8601684570312;	329,25;	0,0;	0,0
798,9668579101562;	324,75;	0,0;	0,0
799,0735473632812;	322,0;	0,0;	0,0
799,18017578125;	322,75;	0,0;	0,0
799,2868041992188;	306,5;	0,0;	0,0
799,3934936523438;	314,5;	0,0;	0,0
799,5000610351562;	328,25;	0,0;	0,0
799,6066284179688;	304,0;	0,0;	0,0
799,7131958007812;	338,75;	0,0;	0,0
799,8197631835938;	400,75;	0,0;	0,0
799,9263305664062;	346,75;	0,0;	0,0
800,0327758789062;	308,0;	0,0;	0,0
800,1392822265625;	328,0;	0,0;	0,0
800,2457275390625;	322,75;	0,0;	0,0
800,3521728515625;	317,75;	0,0;	0,0
800,4586181640625;	315,25;	0,0;	0,0
800,56494140625;	312,5;	0,0;	0,0
800,67138671875;	299,0;	0,0;	0,0
800,7776489257812;	304,75;	0,0;	0,0
800,884033203125;	284,75;	0,0;	0,0
800,9902954101562;	338,5;	0,0;	0,0
801,0966186523438;	303,25;	0,0;	0,0
801,202880859375;	314,5;	0,0;	0,0
801,3091430664062;	306,75;	0,0;	0,0
801,4154052734375;	322,75;	0,0;	0,0
801,5216064453125;	335,25;	0,0;	0,0
801,6278076171875;	331,5;	0,0;	0,0
801,7339477539062;	309,25;	0,0;	0,0
801,8401489257812;	308,25;	0,0;	0,0
801,9462280273438;	303,25;	0,0;	0,0
802,0523681640625;	330,5;	0,0;	0,0
802,158447265625;	334,25;	0,0;	0,0
802,2645263671875;	313,0;	0,0;	0,0
802,37060546875;	306,0;	0,0;	0,0
802,4766235351562;	324,0;	0,0;	0,0
802,5826416015625;	328,75;	0,0;	0,0
802,6885986328125;	306,0;	0,0;	0,0
802,7945556640625;	314,5;	0,0;	0,0
802,9005737304688;	314,5;	0,0;	0,0
803,0065307617188;	309,0;	0,0;	0,0
803,1124267578125;	353,25;	0,0;	0,0
803,2183227539062;	297,5;	0,0;	0,0
803,3241577148438;	281,25;	0,0;	0,0
803,4299926757812;	300,25;	0,0;	0,0
803,5358276367188;	321,5;	0,0;	0,0
803,6416015625;	286,5;	0,0;	0,0
803,7474365234375;	321,25;	0,0;	0,0
803,8532104492188;	315,0;	0,0;	0,0
803,9589233398438;	333,5;	0,0;	0,0
804,0646362304688;	292,25;	0,0;	0,0
804,17041015625;	293,75;	0,0;	0,0
804,2760009765625;	303,0;	0,0;	0,0
804,3817138671875;	326,0;	0,0;	0,0
804,4873657226562;	350,75;	0,0;	0,0
804,5929565429688;	345,5;	0,0;	0,0
804,6985473632812;	308,25;	0,0;	0,0
804,80419921875;	304,5;	0,0;	0,0
804,9097290039062;	295,0;	0,0;	0,0
805,0153198242188;	274,75;	0,0;	0,0
805,1207275390625;	325,25;	0,0;	0,0
805,226318359375;	305,5;	0,0;	0,0
805,3316650390625;	313,75;	0,0;	0,0
805,437255859375;	281,0;	0,0;	0,0
805,5426635742188;	294,75;	0,0;	0,0
805,6481323242188;	303,5;	0,0;	0,0
805,75341796875;	324,75;	0,0;	0,0
805,8588256835938;	279,75;	0,0;	0,0
805,9641723632812;	304,0;	0,0;	0,0
806,0695190429688;	323,75;	0,0;	0,0
806,1748657226562;	308,25;	0,0;	0,0
806,2801513671875;	304,75;	0,0;	0,0
806,3853759765625;	294,75;	0,0;	0,0
806,4906005859375;	300,0;	0,0;	0,0
806,5958862304688;	300,25;	0,0;	0,0
806,7011108398438;	321,5;	0,0;	0,0
806,8062744140625;	303,75;	0,0;	0,0
806,9114379882812;	293,25;	0,0;	0,0
807,0166625976562;	301,5;	0,0;	0,0
807,1217041015625;	301,5;	0,0;	0,0
807,2268676757812;	302,25;	0,0;	0,0
807,3319091796875;	289,25;	0,0;	0,0
807,43701171875;	321,0;	0,0;	0,0
807,5420532226562;	308,25;	0,0;	0,0
807,6470947265625;	328,75;	0,0;	0,0
807,7521362304688;	309,5;	0,0;	0,0
807,8571166992188;	305,5;	0,0;	0,0
807,9620361328125;	322,5;	0,0;	0,0
808,0669555664062;	308,0;	0,0;	0,0
808,1719360351562;	290,75;	0,0;	0,0
808,27685546875;	306,25;	0,0;	0,0
808,3817138671875;	343,75;	0,0;	0,0
808,486572265625;	336,25;	0,0;	0,0
808,5914306640625;	330,0;	0,0;	0,0
808,6962890625;	313,75;	0,0;	0,0
808,8010864257812;	305,5;	0,0;	0,0
808,9058837890625;	307,25;	0,0;	0,0
809,0105590820312;	288,5;	0,0;	0,0
809,1152954101562;	328,0;	0,0;	0,0
809,2200317382812;	333,75;	0,0;	0,0
809,3247680664062;	302,75;	0,0;	0,0
809,4293823242188;	308,5;	0,0;	0,0
809,5341186523438;	305,75;	0,0;	0,0
809,6386108398438;	310,0;	0,0;	0,0
809,7433471679688;	312,25;	0,0;	0,0
809,847900390625;	290,75;	0,0;	0,0
809,9525146484375;	297,25;	0,0;	0,0
810,0570068359375;	303,25;	0,0;	0,0
810,16162109375;	325,0;	0,0;	0,0
810,2660522460938;	328,5;	0,0;	0,0
810,3705444335938;	326,25;	0,0;	0,0
810,4750366210938;	317,5;	0,0;	0,0
810,5794677734375;	331,0;	0,0;	0,0
810,6838989257812;	302,0;	0,0;	0,0
810,7882690429688;	297,25;	0,0;	0,0
810,8927001953125;	299,5;	0,0;	0,0
810,9970703125;	303,75;	0,0;	0,0
811,1013793945312;	301,0;	0,0;	0,0
811,2057495117188;	292,5;	0,0;	0,0
811,31005859375;	309,5;	0,0;	0,0
811,414306640625;	333,25;	0,0;	0,0
811,5186157226562;	337,25;	0,0;	0,0
811,6228637695312;	321,5;	0,0;	0,0
811,7271118164062;	290,25;	0,0;	0,0
811,8312377929688;	311,75;	0,0;	0,0
811,9354858398438;	315,0;	0,0;	0,0
812,0396118164062;	327,0;	0,0;	0,0
812,1437377929688;	290,75;	0,0;	0,0
812,2478637695312;	302,5;	0,0;	0,0
812,3519897460938;	298,75;	0,0;	0,0
812,4560546875;	329,0;	0,0;	0,0
812,5601196289062;	358,0;	0,0;	0,0
812,6641235351562;	328,75;	0,0;	0,0
812,7681884765625;	308,25;	0,0;	0,0
812,8721313476562;	275,25;	0,0;	0,0
812,9761352539062;	307,5;	0,0;	0,0
813,0801391601562;	303,0;	0,0;	0,0
813,1840209960938;	292,25;	0,0;	0,0
813,2879638671875;	316,0;	0,0;	0,0
813,391845703125;	291,5;	0,0;	0,0
813,4957275390625;	319,75;	0,0;	0,0
813,5995483398438;	279,5;	0,0;	0,0
813,703369140625;	326,5;	0,0;	0,0
813,8071899414062;	299,0;	0,0;	0,0
813,9110107421875;	304,75;	0,0;	0,0
814,0147094726562;	304,75;	0,0;	0,0
814,118408203125;	293,25;	0,0;	0,0
814,2222290039062;	281,25;	0,0;	0,0
814,3258666992188;	296,5;	0,0;	0,0
814,4295654296875;	313,75;	0,0;	0,0
814,533203125;	306,25;	0,0;	0,0
814,6369018554688;	304,0;	0,0;	0,0
814,740478515625;	302,0;	0,0;	0,0
814,8440551757812;	314,25;	0,0;	0,0
814,9476928710938;	288,75;	0,0;	0,0
815,0512084960938;	316,5;	0,0;	0,0
815,15478515625;	320,5;	0,0;	0,0
815,25830078125;	322,5;	0,0;	0,0
815,3617553710938;	315,5;	0,0;	0,0
815,4652099609375;	304,75;	0,0;	0,0
815,5686645507812;	304,25;	0,0;	0,0
815,6721801757812;	296,25;	0,0;	0,0
815,7755737304688;	313,25;	0,0;	0,0
815,8789672851562;	305,25;	0,0;	0,0
815,9823608398438;	290,75;	0,0;	0,0
816,085693359375;	307,0;	0,0;	0,0
816,18896484375;	316,5;	0,0;	0,0
816,2922973632812;	322,5;	0,0;	0,0
816,3955688476562;	283,5;	0,0;	0,0
816,4989013671875;	302,25;	0,0;	0,0
816,6021118164062;	304,5;	0,0;	0,0
816,705322265625;	302,25;	0,0;	0,0
816,8085327148438;	311,75;	0,0;	0,0
816,9117431640625;	334,25;	0,0;	0,0
817,014892578125;	320,0;	0,0;	0,0
817,1180419921875;	318,75;	0,0;	0,0
817,22119140625;	330,0;	0,0;	0,0
817,32421875;	315,25;	0,0;	0,0
817,4273681640625;	334,0;	0,0;	0,0
817,5303955078125;	315,5;	0,0;	0,0
817,6334228515625;	357,75;	0,0;	0,0
817,7365112304688;	335,5;	0,0;	0,0
817,8394775390625;	386,0;	0,0;	0,0
817,9424438476562;	471,0;	0,0;	0,0
818,04541015625;	688,25;	0,0;	0,0
818,1483154296875;	1631,75;	0,0;	0,0
818,251220703125;	3331,25;	0,0;	0,0
818,3541259765625;	1726,5;	0,0;	0,0
818,45703125;	1031,0;	0,0;	0,0
818,5598754882812;	710,5;	0,0;	0,0
818,6627197265625;	791,25;	0,0;	0,0
818,7654418945312;	861,0;	0,0;	0,0
818,8682861328125;	632,75;	0,0;	0,0
818,9710083007812;	552,0;	0,0;	0,0
819,0737915039062;	595,25;	0,0;	0,0
819,1764526367188;	851,0;	0,0;	0,0
819,2791137695312;	1834,5;	0,0;	0,0
819,3818359375;	4460,75;	0,0;	0,0
819,4844970703125;	2820,5;	0,0;	0,0
819,587158203125;	773,5;	0,0;	0,0
819,6897583007812;	504,0;	0,0;	0,0
819,7923583984375;	444,25;	0,0;	0,0
819,8949584960938;	450,25;	0,0;	0,0
819,9974975585938;	440,25;	0,0;	0,0
820,1000366210938;	387,25;	0,0;	0,0
820,2025146484375;	352,0;	0,0;	0,0
820,3050537109375;	342,0;	0,0;	0,0
820,4075317382812;	344,0;	0,0;	0,0
820,5099487304688;	381,5;	0,0;	0,0
820,6123657226562;	336,0;	0,0;	0,0
820,7147827148438;	366,0;	0,0;	0,0
820,8171997070312;	391,0;	0,0;	0,0
820,9196166992188;	464,0;	0,0;	0,0
821,0219116210938;	573,75;	0,0;	0,0
821,1242065429688;	477,5;	0,0;	0,0
821,2265625;	441,5;	0,0;	0,0
821,3287963867188;	557,5;	0,0;	0,0
821,4310913085938;	851,0;	0,0;	0,0
821,5333251953125;	1441,25;	0,0;	0,0
821,6355590820312;	1293,25;	0,0;	0,0
821,7377319335938;	706,25;	0,0;	0,0
821,8399658203125;	525,75;	0,0;	0,0
821,9420776367188;	605,0;	0,0;	0,0
822,044189453125;	563,0;	0,0;	0,0
822,1463623046875;	681,0;	0,0;	0,0
822,2484741210938;	848,5;	0,0;	0,0
822,3505249023438;	645,75;	0,0;	0,0
822,4525756835938;	462,5;	0,0;	0,0
822,5546264648438;	354,5;	0,0;	0,0
822,6566162109375;	360,5;	0,0;	0,0
822,7586059570312;	346,25;	0,0;	0,0
822,860595703125;	321,75;	0,0;	0,0
822,9625244140625;	350,75;	0,0;	0,0
823,064453125;	341,25;	0,0;	0,0
823,166259765625;	327,75;	0,0;	0,0
823,2682495117188;	335,0;	0,0;	0,0
823,3700561523438;	322,25;	0,0;	0,0
823,471923828125;	312,25;	0,0;	0,0
823,57373046875;	308,5;	0,0;	0,0
823,6754760742188;	317,25;	0,0;	0,0
823,7772827148438;	352,0;	0,0;	0,0
823,8790283203125;	348,0;	0,0;	0,0
823,9807739257812;	415,5;	0,0;	0,0
824,08251953125;	563,25;	0,0;	0,0
824,1842041015625;	797,5;	0,0;	0,0
824,285888671875;	583,5;	0,0;	0,0
824,3875122070312;	382,0;	0,0;	0,0
824,4891357421875;	373,25;	0,0;	0,0
824,5908203125;	340,0;	0,0;	0,0
824,6923828125;	309,25;	0,0;	0,0
824,7938842773438;	310,75;	0,0;	0,0
824,8954467773438;	316,5;	0,0;	0,0
824,9969482421875;	303,0;	0,0;	0,0
825,0985107421875;	300,5;	0,0;	0,0
825,2000122070312;	293,5;	0,0;	0,0
825,3014526367188;	266,75;	0,0;	0,0
825,4028930664062;	276,75;	0,0;	0,0
825,5043334960938;	295,0;	0,0;	0,0
825,6056518554688;	278,75;	0,0;	0,0
825,7070922851562;	304,25;	0,0;	0,0
825,8084106445312;	302,25;	0,0;	0,0
825,9097900390625;	309,75;	0,0;	0,0
826,0110473632812;	283,5;	0,0;	0,0
826,1124267578125;	285,25;	0,0;	0,0
826,2136840820312;	274,0;	0,0;	0,0
826,3148803710938;	295,5;	0,0;	0,0
826,4161376953125;	306,25;	0,0;	0,0
826,517333984375;	255,75;	0,0;	0,0
826,6185302734375;	279,5;	0,0;	0,0
826,7197265625;	304,0;	0,0;	0,0
826,82080078125;	276,25;	0,0;	0,0
826,9219360351562;	302,5;	0,0;	0,0
827,0230712890625;	282,25;	0,0;	0,0
827,1241455078125;	279,25;	0,0;	0,0
827,2252197265625;	289,5;	0,0;	0,0
827,3262939453125;	299,5;	0,0;	0,0
827,42724609375;	294,75;	0,0;	0,0
827,5281982421875;	289,0;	0,0;	0,0
827,6292114257812;	280,5;	0,0;	0,0
827,7301635742188;	282,25;	0,0;	0,0
827,8311157226562;	300,75;	0,0;	0,0
827,9320068359375;	258,25;	0,0;	0,0
828,0328369140625;	296,5;	0,0;	0,0
828,1337890625;	282,75;	0,0;	0,0
828,234619140625;	288,0;	0,0;	0,0
828,3353881835938;	275,75;	0,0;	0,0
828,4362182617188;	289,0;	0,0;	0,0
828,5369873046875;	292,75;	0,0;	0,0
828,6377563476562;	295,75;	0,0;	0,0
828,7384643554688;	266,0;	0,0;	0,0
828,8392333984375;	301,75;	0,0;	0,0
828,93994140625;	271,5;	0,0;	0,0
829,0405883789062;	297,25;	0,0;	0,0
829,1412963867188;	243,75;	0,0;	0,0
829,241943359375;	289,5;	0,0;	0,0
829,3424682617188;	281,75;	0,0;	0,0
829,443115234375;	290,75;	0,0;	0,0
829,543701171875;	292,0;	0,0;	0,0
829,6442260742188;	267,25;	0,0;	0,0
829,7447509765625;	303,25;	0,0;	0,0
829,8452758789062;	280,75;	0,0;	0,0
829,94580078125;	306,25;	0,0;	0,0
830,0462036132812;	292,0;	0,0;	0,0
830,1466674804688;	274,0;	0,0;	0,0
830,2470703125;	268,0;	0,0;	0,0
830,3475341796875;	298,75;	0,0;	0,0
830,4478759765625;	285,5;	0,0;	0,0
830,5482177734375;	303,5;	0,0;	0,0
830,6485595703125;	280,0;	0,0;	0,0
830,7489013671875;	298,0;	0,0;	0,0
830,8491821289062;	281,75;	0,0;	0,0
830,949462890625;	273,75;	0,0;	0,0
831,0497436523438;	305,75;	0,0;	0,0
831,14990234375;	289,5;	0,0;	0,0
831,2501220703125;	294,5;	0,0;	0,0
831,350341796875;	283,75;	0,0;	0,0
831,4505004882812;	294,75;	0,0;	0,0
831,5506591796875;	270,25;	0,0;	0,0
831,6507568359375;	266,75;	0,0;	0,0
831,7508544921875;	277,25;	0,0;	0,0
831,8508911132812;	288,25;	0,0;	0,0
831,9510498046875;	291,25;	0,0;	0,0
832,051025390625;	282,0;	0,0;	0,0
832,1510620117188;	272,75;	0,0;	0,0
832,2509765625;	271,5;	0,0;	0,0
832,3509521484375;	297,0;	0,0;	0,0
832,4509887695312;	292,5;	0,0;	0,0
832,5509033203125;	350,0;	0,0;	0,0
832,6508178710938;	377,25;	0,0;	0,0
832,7506103515625;	278,25;	0,0;	0,0
832,8505249023438;	291,0;	0,0;	0,0
832,9503784179688;	289,25;	0,0;	0,0
833,0502319335938;	311,5;	0,0;	0,0
833,1500244140625;	295,0;	0,0;	0,0
833,249755859375;	294,0;	0,0;	0,0
833,3495483398438;	287,5;	0,0;	0,0
833,4492797851562;	275,5;	0,0;	0,0
833,5490112304688;	292,75;	0,0;	0,0
833,648681640625;	284,5;	0,0;	0,0
833,7484130859375;	310,0;	0,0;	0,0
833,8480224609375;	305,75;	0,0;	0,0
833,9476318359375;	291,25;	0,0;	0,0
834,0473022460938;	281,75;	0,0;	0,0
834,1468505859375;	307,25;	0,0;	0,0
834,2464599609375;	278,5;	0,0;	0,0
834,3460083007812;	283,25;	0,0;	0,0
834,4454956054688;	263,0;	0,0;	0,0
834,5450439453125;	269,75;	0,0;	0,0
834,64453125;	283,5;	0,0;	0,0
834,7439575195312;	270,25;	0,0;	0,0
834,8433837890625;	267,5;	0,0;	0,0
834,9428100585938;	284,0;	0,0;	0,0
835,042236328125;	259,75;	0,0;	0,0
835,1415405273438;	295,75;	0,0;	0,0
835,2409057617188;	280,0;	0,0;	0,0
835,3402709960938;	268,75;	0,0;	0,0
835,4395751953125;	296,5;	0,0;	0,0
835,538818359375;	297,75;	0,0;	0,0
835,6381225585938;	286,25;	0,0;	0,0
835,7373657226562;	277,0;	0,0;	0,0
835,8366088867188;	278,75;	0,0;	0,0
835,9358520507812;	285,25;	0,0;	0,0
836,0350341796875;	271,75;	0,0;	0,0
836,1340942382812;	295,0;	0,0;	0,0
836,2332763671875;	284,0;	0,0;	0,0
836,3323364257812;	291,25;	0,0;	0,0
836,4315185546875;	294,0;	0,0;	0,0
836,530517578125;	282,25;	0,0;	0,0
836,6295776367188;	292,5;	0,0;	0,0
836,7285766601562;	269,5;	0,0;	0,0
836,82763671875;	275,0;	0,0;	0,0
836,9265747070312;	284,5;	0,0;	0,0
837,0255737304688;	257,5;	0,0;	0,0
837,1244506835938;	268,25;	0,0;	0,0
837,2234497070312;	273,25;	0,0;	0,0
837,3223266601562;	274,5;	0,0;	0,0
837,4212036132812;	276,75;	0,0;	0,0
837,5200805664062;	293,75;	0,0;	0,0
837,618896484375;	253,5;	0,0;	0,0
837,7177124023438;	293,0;	0,0;	0,0
837,8165283203125;	289,25;	0,0;	0,0
837,915283203125;	269,25;	0,0;	0,0
838,0140380859375;	285,75;	0,0;	0,0
838,11279296875;	295,75;	0,0;	0,0
838,2114868164062;	278,0;	0,0;	0,0
838,3101196289062;	263,0;	0,0;	0,0
838,4088134765625;	301,5;	0,0;	0,0
838,5075073242188;	288,25;	0,0;	0,0
838,6061401367188;	361,75;	0,0;	0,0
838,7047119140625;	402,5;	0,0;	0,0
838,8032836914062;	280,0;	0,0;	0,0
838,9017944335938;	272,25;	0,0;	0,0
839,0003662109375;	264,5;	0,0;	0,0
839,098876953125;	275,75;	0,0;	0,0
839,1973876953125;	258,75;	0,0;	0,0
839,2958374023438;	285,5;	0,0;	0,0
839,394287109375;	271,0;	0,0;	0,0
839,4927368164062;	278,75;	0,0;	0,0
839,5911254882812;	294,25;	0,0;	0,0
839,6895141601562;	277,25;	0,0;	0,0
839,787841796875;	263,75;	0,0;	0,0
839,8861694335938;	285,0;	0,0;	0,0
839,9844970703125;	288,25;	0,0;	0,0
840,0828247070312;	288,0;	0,0;	0,0
840,1810913085938;	282,0;	0,0;	0,0
840,2793579101562;	290,25;	0,0;	0,0
840,3775024414062;	291,5;	0,0;	0,0
840,475830078125;	288,0;	0,0;	0,0
840,5739135742188;	267,5;	0,0;	0,0
840,6721801757812;	291,5;	0,0;	0,0
840,770263671875;	290,0;	0,0;	0,0
840,868408203125;	281,75;	0,0;	0,0
840,9664916992188;	269,5;	0,0;	0,0
841,0645751953125;	255,25;	0,0;	0,0
841,16259765625;	273,75;	0,0;	0,0
841,2606201171875;	286,0;	0,0;	0,0
841,3587036132812;	287,25;	0,0;	0,0
841,4566650390625;	283,75;	0,0;	0,0
841,5546264648438;	278,0;	0,0;	0,0
841,652587890625;	273,75;	0,0;	0,0
841,75048828125;	281,0;	0,0;	0,0
841,8484497070312;	271,5;	0,0;	0,0
841,9463500976562;	268,75;	0,0;	0,0
842,0441284179688;	292,5;	0,0;	0,0
842,1420288085938;	283,75;	0,0;	0,0
842,2398681640625;	289,0;	0,0;	0,0
842,337646484375;	307,75;	0,0;	0,0
842,4353637695312;	306,75;	0,0;	0,0
842,533203125;	277,25;	0,0;	0,0
842,6309204101562;	285,75;	0,0;	0,0
842,7285766601562;	276,0;	0,0;	0,0
842,8263549804688;	279,75;	0,0;	0,0
842,9240112304688;	270,75;	0,0;	0,0
843,0216064453125;	275,5;	0,0;	0,0
843,1192626953125;	281,75;	0,0;	0,0
843,2168579101562;	270,5;	0,0;	0,0
843,314453125;	275,75;	0,0;	0,0
843,4120483398438;	272,25;	0,0;	0,0
843,509521484375;	287,75;	0,0;	0,0
843,6070556640625;	287,75;	0,0;	0,0
843,7045288085938;	277,75;	0,0;	0,0
843,802001953125;	317,25;	0,0;	0,0
843,8994750976562;	293,0;	0,0;	0,0
843,9968872070312;	313,25;	0,0;	0,0
844,0942993164062;	329,75;	0,0;	0,0
844,191650390625;	338,25;	0,0;	0,0
844,2890014648438;	423,5;	0,0;	0,0
844,3863525390625;	563,0;	0,0;	0,0
844,4837036132812;	912,5;	0,0;	0,0
844,5809326171875;	1146,75;	0,0;	0,0
844,6782836914062;	765,5;	0,0;	0,0
844,7754516601562;	543,75;	0,0;	0,0
844,872802734375;	401,0;	0,0;	0,0
844,9699096679688;	370,25;	0,0;	0,0
845,0671997070312;	328,75;	0,0;	0,0
845,164306640625;	306,25;	0,0;	0,0
845,2614135742188;	305,75;	0,0;	0,0
845,3585815429688;	297,5;	0,0;	0,0
845,4556884765625;	297,5;	0,0;	0,0
845,552734375;	264,25;	0,0;	0,0
845,6498413085938;	295,5;	0,0;	0,0
845,746826171875;	278,75;	0,0;	0,0
845,8438720703125;	267,25;	0,0;	0,0
845,9408569335938;	285,25;	0,0;	0,0
846,037841796875;	289,0;	0,0;	0,0
846,134765625;	260,25;	0,0;	0,0
846,231689453125;	284,25;	0,0;	0,0
846,32861328125;	279,5;	0,0;	0,0
846,4254760742188;	284,0;	0,0;	0,0
846,5223388671875;	247,0;	0,0;	0,0
846,6192016601562;	298,0;	0,0;	0,0
846,716064453125;	295,5;	0,0;	0,0
846,8128051757812;	276,25;	0,0;	0,0
846,9096069335938;	281,5;	0,0;	0,0
847,00634765625;	291,0;	0,0;	0,0
847,1030883789062;	287,0;	0,0;	0,0
847,1998291015625;	266,75;	0,0;	0,0
847,2964477539062;	260,5;	0,0;	0,0
847,3931274414062;	252,25;	0,0;	0,0
847,4898071289062;	288,5;	0,0;	0,0
847,58642578125;	266,0;	0,0;	0,0
847,6829833984375;	282,25;	0,0;	0,0
847,779541015625;	250,75;	0,0;	0,0
847,8760986328125;	252,5;	0,0;	0,0
847,97265625;	269,75;	0,0;	0,0
848,0691528320312;	263,0;	0,0;	0,0
848,1656494140625;	255,0;	0,0;	0,0
848,2621459960938;	257,75;	0,0;	0,0
848,3585815429688;	241,75;	0,0;	0,0
848,4549560546875;	255,25;	0,0;	0,0
848,5513305664062;	276,5;	0,0;	0,0
848,6478271484375;	276,5;	0,0;	0,0
848,7440795898438;	265,25;	0,0;	0,0
848,8405151367188;	254,25;	0,0;	0,0
848,936767578125;	290,5;	0,0;	0,0
849,0330810546875;	282,25;	0,0;	0,0
849,1293334960938;	283,25;	0,0;	0,0
849,2256469726562;	283,5;	0,0;	0,0
849,32177734375;	278,5;	0,0;	0,0
849,4180297851562;	266,25;	0,0;	0,0
849,51416015625;	301,5;	0,0;	0,0
849,6103515625;	302,5;	0,0;	0,0
849,7064819335938;	381,25;	0,0;	0,0
849,8026123046875;	304,75;	0,0;	0,0
849,898681640625;	302,5;	0,0;	0,0
849,9947509765625;	267,25;	0,0;	0,0
850,0908203125;	274,25;	0,0;	0,0
850,1868286132812;	270,0;	0,0;	0,0
850,2828979492188;	264,25;	0,0;	0,0
850,3788452148438;	264,75;	0,0;	0,0
850,474853515625;	259,0;	0,0;	0,0
850,5707397460938;	268,5;	0,0;	0,0
850,6666870117188;	273,5;	0,0;	0,0
850,7625732421875;	254,5;	0,0;	0,0
850,8583984375;	268,75;	0,0;	0,0
850,9542846679688;	273,0;	0,0;	0,0
851,0501098632812;	257,75;	0,0;	0,0
851,1459350585938;	267,75;	0,0;	0,0
851,24169921875;	265,75;	0,0;	0,0
851,3374633789062;	311,75;	0,0;	0,0
851,4332275390625;	288,0;	0,0;	0,0
851,5289306640625;	268,75;	0,0;	0,0
851,6246337890625;	285,75;	0,0;	0,0
851,7203369140625;	277,75;	0,0;	0,0
851,8159790039062;	293,75;	0,0;	0,0
851,91162109375;	268,5;	0,0;	0,0
852,0072631835938;	274,75;	0,0;	0,0
852,1028442382812;	273,75;	0,0;	0,0
852,1983642578125;	273,25;	0,0;	0,0
852,2939453125;	244,25;	0,0;	0,0
852,3894653320312;	265,75;	0,0;	0,0
852,4849853515625;	277,25;	0,0;	0,0
852,5804443359375;	289,75;	0,0;	0,0
852,6758422851562;	265,0;	0,0;	0,0
852,7713012695312;	261,5;	0,0;	0,0
852,86669921875;	254,25;	0,0;	0,0
852,962158203125;	252,5;	0,0;	0,0
853,0574340820312;	268,25;	0,0;	0,0
853,15283203125;	261,5;	0,0;	0,0
853,2481689453125;	277,75;	0,0;	0,0
853,343505859375;	269,0;	0,0;	0,0
853,4386596679688;	289,75;	0,0;	0,0
853,5340576171875;	259,0;	0,0;	0,0
853,6292114257812;	284,75;	0,0;	0,0
853,7244262695312;	272,75;	0,0;	0,0
853,819580078125;	311,0;	0,0;	0,0
853,9147338867188;	355,75;	0,0;	0,0
854,0098876953125;	548,5;	0,0;	0,0
854,1050415039062;	821,75;	0,0;	0,0
854,2001342773438;	561,75;	0,0;	0,0
854,2952270507812;	304,0;	0,0;	0,0
854,3903198242188;	289,25;	0,0;	0,0
854,4852905273438;	273,75;	0,0;	0,0
854,580322265625;	247,75;	0,0;	0,0
854,6753540039062;	261,25;	0,0;	0,0
854,7703247070312;	252,0;	0,0;	0,0
854,865234375;	286,0;	0,0;	0,0
854,960205078125;	288,25;	0,0;	0,0
855,0551147460938;	272,25;	0,0;	0,0
855,1499633789062;	270,0;	0,0;	0,0
855,2448120117188;	282,0;	0,0;	0,0
855,3396606445312;	270,5;	0,0;	0,0
855,4344482421875;	277,5;	0,0;	0,0
855,5292358398438;	269,5;	0,0;	0,0
855,6240234375;	273,0;	0,0;	0,0
855,7188110351562;	252,0;	0,0;	0,0
855,8135375976562;	257,75;	0,0;	0,0
855,9082641601562;	257,75;	0,0;	0,0
856,0029296875;	261,75;	0,0;	0,0
856,0975952148438;	308,5;	0,0;	0,0
856,1921997070312;	270,0;	0,0;	0,0
856,286865234375;	292,75;	0,0;	0,0
856,3814086914062;	282,25;	0,0;	0,0
856,4760131835938;	276,25;	0,0;	0,0
856,570556640625;	306,75;	0,0;	0,0
856,6651000976562;	327,0;	0,0;	0,0
856,759521484375;	337,75;	0,0;	0,0
856,8540649414062;	309,0;	0,0;	0,0
856,948486328125;	306,0;	0,0;	0,0
857,04296875;	303,75;	0,0;	0,0
857,1373291015625;	272,5;	0,0;	0,0
857,2317504882812;	267,75;	0,0;	0,0
857,3261108398438;	269,5;	0,0;	0,0
857,4204711914062;	302,0;	0,0;	0,0
857,5147705078125;	262,25;	0,0;	0,0
857,609130859375;	259,25;	0,0;	0,0
857,703369140625;	288,25;	0,0;	0,0
857,797607421875;	266,25;	0,0;	0,0
857,891845703125;	283,5;	0,0;	0,0
857,986083984375;	269,0;	0,0;	0,0
858,0802612304688;	277,0;	0,0;	0,0
858,1744384765625;	268,5;	0,0;	0,0
858,2686157226562;	270,0;	0,0;	0,0
858,3627319335938;	265,75;	0,0;	0,0
858,4568481445312;	266,0;	0,0;	0,0
858,5509033203125;	264,5;	0,0;	0,0
858,6449584960938;	287,75;	0,0;	0,0
858,739013671875;	281,5;	0,0;	0,0
858,8330078125;	285,25;	0,0;	0,0
858,927001953125;	295,0;	0,0;	0,0
859,0209350585938;	306,75;	0,0;	0,0
859,1149291992188;	288,75;	0,0;	0,0
859,2088623046875;	356,25;	0,0;	0,0
859,302734375;	434,0;	0,0;	0,0
859,3966674804688;	425,5;	0,0;	0,0
859,4905395507812;	373,25;	0,0;	0,0
859,5843505859375;	306,25;	0,0;	0,0
859,6781616210938;	292,0;	0,0;	0,0
859,77197265625;	312,5;	0,0;	0,0
859,86572265625;	294,75;	0,0;	0,0
859,95947265625;	267,0;	0,0;	0,0
860,05322265625;	257,5;	0,0;	0,0
860,1469116210938;	278,5;	0,0;	0,0
860,2406005859375;	257,75;	0,0;	0,0
860,3342895507812;	264,75;	0,0;	0,0
860,4278564453125;	263,0;	0,0;	0,0
860,521484375;	260,25;	0,0;	0,0
860,6151123046875;	293,25;	0,0;	0,0
860,7086791992188;	269,75;	0,0;	0,0
860,8021240234375;	279,25;	0,0;	0,0
860,8956909179688;	302,0;	0,0;	0,0
860,9891357421875;	294,0;	0,0;	0,0
861,0827026367188;	269,5;	0,0;	0,0
861,1760864257812;	267,25;	0,0;	0,0
861,2695922851562;	260,5;	0,0;	0,0
861,3629760742188;	288,0;	0,0;	0,0
861,4563598632812;	278,5;	0,0;	0,0
861,5497436523438;	284,75;	0,0;	0,0
861,64306640625;	282,5;	0,0;	0,0
861,7363891601562;	278,25;	0,0;	0,0
861,8296508789062;	305,0;	0,0;	0,0
861,9229736328125;	289,25;	0,0;	0,0
862,0162353515625;	291,75;	0,0;	0,0
862,1094360351562;	300,75;	0,0;	0,0
862,20263671875;	317,5;	0,0;	0,0
862,2958374023438;	304,0;	0,0;	0,0
862,3890380859375;	300,5;	0,0;	0,0
862,482177734375;	342,25;	0,0;	0,0
862,5753173828125;	342,25;	0,0;	0,0
862,6683959960938;	434,25;	0,0;	0,0
862,761474609375;	531,0;	0,0;	0,0
862,8545532226562;	654,75;	0,0;	0,0
862,9475708007812;	597,5;	0,0;	0,0
863,0405883789062;	437,0;	0,0;	0,0
863,133544921875;	403,0;	0,0;	0,0
863,2265625;	339,5;	0,0;	0,0
863,3194580078125;	302,25;	0,0;	0,0
863,412353515625;	286,25;	0,0;	0,0
863,5052490234375;	281,0;	0,0;	0,0
863,59814453125;	273,5;	0,0;	0,0
863,6909790039062;	267,25;	0,0;	0,0
863,7838134765625;	280,0;	0,0;	0,0
863,8766479492188;	284,0;	0,0;	0,0
863,9694213867188;	276,0;	0,0;	0,0
864,0621948242188;	284,25;	0,0;	0,0
864,1549072265625;	270,0;	0,0;	0,0
864,2476806640625;	277,0;	0,0;	0,0
864,34033203125;	296,0;	0,0;	0,0
864,4330444335938;	275,5;	0,0;	0,0
864,5256958007812;	279,0;	0,0;	0,0
864,6182861328125;	251,5;	0,0;	0,0
864,7109375;	279,0;	0,0;	0,0
864,803466796875;	264,5;	0,0;	0,0
864,8960571289062;	276,25;	0,0;	0,0
864,988525390625;	275,0;	0,0;	0,0
865,0811157226562;	282,75;	0,0;	0,0
865,1735229492188;	300,0;	0,0;	0,0
865,2660522460938;	272,75;	0,0;	0,0
865,3584594726562;	320,5;	0,0;	0,0
865,4509887695312;	331,5;	0,0;	0,0
865,5432739257812;	350,25;	0,0;	0,0
865,6357421875;	354,0;	0,0;	0,0
865,72802734375;	323,75;	0,0;	0,0
865,8203125;	320,75;	0,0;	0,0
865,9127197265625;	349,25;	0,0;	0,0
866,0049438476562;	442,5;	0,0;	0,0
866,0972290039062;	575,5;	0,0;	0,0
866,189453125;	480,75;	0,0;	0,0
866,2816772460938;	334,75;	0,0;	0,0
866,3739013671875;	282,5;	0,0;	0,0
866,466064453125;	291,25;	0,0;	0,0
866,5582275390625;	276,75;	0,0;	0,0
866,6503295898438;	293,25;	0,0;	0,0
866,7424926757812;	272,25;	0,0;	0,0
866,8345336914062;	280,25;	0,0;	0,0
866,9266357421875;	285,0;	0,0;	0,0
867,0186767578125;	293,75;	0,0;	0,0
867,1107177734375;	275,5;	0,0;	0,0
867,2026977539062;	297,5;	0,0;	0,0
867,294677734375;	335,0;	0,0;	0,0
867,3865966796875;	331,5;	0,0;	0,0
867,478515625;	354,25;	0,0;	0,0
867,5704345703125;	378,25;	0,0;	0,0
867,662353515625;	523,25;	0,0;	0,0
867,7542114257812;	672,5;	0,0;	0,0
867,8460693359375;	1034,25;	0,0;	0,0
867,9378662109375;	1425,5;	0,0;	0,0
868,0296630859375;	1247,5;	0,0;	0,0
868,1213989257812;	918,5;	0,0;	0,0
868,2131958007812;	968,25;	0,0;	0,0
868,3048706054688;	958,5;	0,0;	0,0
868,3965454101562;	775,75;	0,0;	0,0
868,48828125;	667,25;	0,0;	0,0
868,5799560546875;	639,75;	0,0;	0,0
868,6715698242188;	542,0;	0,0;	0,0
868,7631225585938;	554,75;	0,0;	0,0
868,8547973632812;	432,25;	0,0;	0,0
868,9462890625;	307,5;	0,0;	0,0
869,037841796875;	295,25;	0,0;	0,0
869,1293334960938;	308,0;	0,0;	0,0
869,220947265625;	301,25;	0,0;	0,0
869,3123168945312;	300,0;	0,0;	0,0
869,4038696289062;	271,75;	0,0;	0,0
869,4951782226562;	280,0;	0,0;	0,0
869,5867309570312;	300,5;	0,0;	0,0
869,6780395507812;	286,0;	0,0;	0,0
869,7693481445312;	297,0;	0,0;	0,0
869,8607177734375;	305,75;	0,0;	0,0
869,9520263671875;	315,0;	0,0;	0,0
870,0433349609375;	384,75;	0,0;	0,0
870,1345825195312;	426,0;	0,0;	0,0
870,225830078125;	520,0;	0,0;	0,0
870,3170776367188;	472,75;	0,0;	0,0
870,4082641601562;	358,5;	0,0;	0,0
870,4994506835938;	298,75;	0,0;	0,0
870,590576171875;	295,5;	0,0;	0,0
870,6817626953125;	299,0;	0,0;	0,0
870,7728271484375;	318,25;	0,0;	0,0
870,8639526367188;	355,25;	0,0;	0,0
870,9550170898438;	422,25;	0,0;	0,0
871,0460815429688;	516,25;	0,0;	0,0
871,1370849609375;	537,5;	0,0;	0,0
871,2280883789062;	414,0;	0,0;	0,0
871,319091796875;	327,5;	0,0;	0,0
871,4100341796875;	293,0;	0,0;	0,0
871,5009155273438;	317,5;	0,0;	0,0
871,5918579101562;	363,25;	0,0;	0,0
871,6828002929688;	413,0;	0,0;	0,0
871,7736206054688;	474,75;	0,0;	0,0
871,864501953125;	462,5;	0,0;	0,0
871,9552612304688;	363,75;	0,0;	0,0
872,0460815429688;	284,0;	0,0;	0,0
872,1369018554688;	271,0;	0,0;	0,0
872,2276000976562;	282,75;	0,0;	0,0
872,318359375;	268,75;	0,0;	0,0
872,4090576171875;	259,25;	0,0;	0,0
872,4996948242188;	278,0;	0,0;	0,0
872,5903930664062;	273,5;	0,0;	0,0
872,680908203125;	294,25;	0,0;	0,0
872,7716064453125;	289,25;	0,0;	0,0
872,8621826171875;	287,0;	0,0;	0,0
872,9527587890625;	307,5;	0,0;	0,0
873,0432739257812;	275,75;	0,0;	0,0
873,1338500976562;	270,0;	0,0;	0,0
873,2243041992188;	282,5;	0,0;	0,0
873,3148193359375;	260,0;	0,0;	0,0
873,4052124023438;	275,25;	0,0;	0,0
873,4957275390625;	244,25;	0,0;	0,0
873,5860595703125;	265,0;	0,0;	0,0
873,6764526367188;	255,75;	0,0;	0,0
873,766845703125;	259,5;	0,0;	0,0
873,857177734375;	249,0;	0,0;	0,0
873,9474487304688;	266,0;	0,0;	0,0
874,0377807617188;	272,0;	0,0;	0,0
874,1279907226562;	251,25;	0,0;	0,0
874,21826171875;	263,75;	0,0;	0,0
874,3084716796875;	259,0;	0,0;	0,0
874,3987426757812;	276,5;	0,0;	0,0
874,4888916015625;	249,0;	0,0;	0,0
874,5790405273438;	268,5;	0,0;	0,0
874,669189453125;	287,75;	0,0;	0,0
874,75927734375;	274,5;	0,0;	0,0
874,849365234375;	243,25;	0,0;	0,0
874,939453125;	262,0;	0,0;	0,0
875,0294799804688;	262,25;	0,0;	0,0
875,1195068359375;	265,75;	0,0;	0,0
875,20947265625;	250,75;	0,0;	0,0
875,2994995117188;	265,0;	0,0;	0,0
875,389404296875;	287,5;	0,0;	0,0
875,4793090820312;	251,0;	0,0;	0,0
875,5692749023438;	237,75;	0,0;	0,0
875,6591186523438;	245,25;	0,0;	0,0
875,7490234375;	257,0;	0,0;	0,0
875,8388061523438;	253,75;	0,0;	0,0
875,9286499023438;	257,0;	0,0;	0,0
876,0184326171875;	269,25;	0,0;	0,0
876,1082153320312;	261,5;	0,0;	0,0
876,197998046875;	257,0;	0,0;	0,0
876,2876586914062;	253,75;	0,0;	0,0
876,3773803710938;	265,0;	0,0;	0,0
876,4671020507812;	275,0;	0,0;	0,0
876,556640625;	239,25;	0,0;	0,0
876,6463012695312;	254,5;	0,0;	0,0
876,7359008789062;	267,25;	0,0;	0,0
876,8255615234375;	264,0;	0,0;	0,0
876,9150390625;	249,0;	0,0;	0,0
877,004638671875;	259,0;	0,0;	0,0
877,0941162109375;	260,25;	0,0;	0,0
877,1836547851562;	257,0;	0,0;	0,0
877,2730712890625;	252,5;	0,0;	0,0
877,3626098632812;	268,5;	0,0;	0,0
877,451904296875;	244,0;	0,0;	0,0
877,5413208007812;	240,0;	0,0;	0,0
877,6306762695312;	246,0;	0,0;	0,0
877,7200927734375;	268,75;	0,0;	0,0
877,8093872070312;	253,75;	0,0;	0,0
877,898681640625;	271,5;	0,0;	0,0
877,988037109375;	250,5;	0,0;	0,0
878,0772705078125;	245,5;	0,0;	0,0
878,16650390625;	251,75;	0,0;	0,0
878,2557373046875;	265,25;	0,0;	0,0
878,3449096679688;	262,25;	0,0;	0,0
878,43408203125;	256,75;	0,0;	0,0
878,5232543945312;	250,25;	0,0;	0,0
878,6123657226562;	253,25;	0,0;	0,0
878,7014770507812;	265,5;	0,0;	0,0
878,7905883789062;	254,5;	0,0;	0,0
878,8795776367188;	261,25;	0,0;	0,0
878,9686279296875;	260,5;	0,0;	0,0
879,0576782226562;	263,5;	0,0;	0,0
879,1466674804688;	262,75;	0,0;	0,0
879,235595703125;	281,25;	0,0;	0,0
879,3245239257812;	271,0;	0,0;	0,0
879,4134521484375;	254,75;	0,0;	0,0
879,5023193359375;	263,25;	0,0;	0,0
879,5911865234375;	244,25;	0,0;	0,0
879,6800537109375;	239,0;	0,0;	0,0
879,7688598632812;	247,0;	0,0;	0,0
879,8577270507812;	238,25;	0,0;	0,0
879,9464721679688;	261,5;	0,0;	0,0
880,0352783203125;	240,5;	0,0;	0,0
880,1239624023438;	252,5;	0,0;	0,0
880,212646484375;	274,0;	0,0;	0,0
880,3013305664062;	267,0;	0,0;	0,0
880,3899536132812;	261,75;	0,0;	0,0
880,4786376953125;	252,75;	0,0;	0,0
880,5671997070312;	260,75;	0,0;	0,0
880,6558837890625;	258,5;	0,0;	0,0
880,7444458007812;	258,0;	0,0;	0,0
880,8330078125;	264,75;	0,0;	0,0
880,9215087890625;	252,75;	0,0;	0,0
881,010009765625;	268,75;	0,0;	0,0
881,0985107421875;	250,25;	0,0;	0,0
881,18701171875;	255,0;	0,0;	0,0
881,2753295898438;	254,25;	0,0;	0,0
881,36376953125;	281,75;	0,0;	0,0
881,4521484375;	272,75;	0,0;	0,0
881,54052734375;	280,5;	0,0;	0,0
881,6288452148438;	260,0;	0,0;	0,0
881,7171630859375;	268,5;	0,0;	0,0
881,8054809570312;	273,75;	0,0;	0,0
881,8937377929688;	306,25;	0,0;	0,0
881,9819946289062;	293,25;	0,0;	0,0
882,0701904296875;	290,0;	0,0;	0,0
882,158447265625;	293,25;	0,0;	0,0
882,24658203125;	300,25;	0,0;	0,0
882,334716796875;	318,5;	0,0;	0,0
882,4228515625;	292,0;	0,0;	0,0
882,510986328125;	258,0;	0,0;	0,0
882,5990600585938;	275,5;	0,0;	0,0
882,6871337890625;	254,0;	0,0;	0,0
882,7752075195312;	255,75;	0,0;	0,0
882,8632202148438;	264,5;	0,0;	0,0
882,951171875;	256,0;	0,0;	0,0
883,0391845703125;	251,25;	0,0;	0,0
883,1271362304688;	257,0;	0,0;	0,0
883,2150268554688;	259,25;	0,0;	0,0
883,3029174804688;	244,25;	0,0;	0,0
883,390869140625;	259,0;	0,0;	0,0
883,4786987304688;	266,0;	0,0;	0,0
883,5665283203125;	260,0;	0,0;	0,0
883,6543579101562;	265,5;	0,0;	0,0
883,7421264648438;	273,5;	0,0;	0,0
883,829833984375;	269,5;	0,0;	0,0
883,9176025390625;	265,0;	0,0;	0,0
884,0053100585938;	247,0;	0,0;	0,0
884,093017578125;	270,75;	0,0;	0,0
884,1806640625;	259,75;	0,0;	0,0
884,268310546875;	251,25;	0,0;	0,0
884,3558959960938;	263,5;	0,0;	0,0
884,4435424804688;	248,5;	0,0;	0,0
884,5310668945312;	268,75;	0,0;	0,0
884,6187133789062;	266,75;	0,0;	0,0
884,7061767578125;	234,0;	0,0;	0,0
884,7937622070312;	261,75;	0,0;	0,0
884,8811645507812;	228,75;	0,0;	0,0
884,9686889648438;	249,25;	0,0;	0,0
885,0560302734375;	219,25;	0,0;	0,0
885,1434936523438;	255,5;	0,0;	0,0
885,2308349609375;	264,75;	0,0;	0,0
885,3182373046875;	248,75;	0,0;	0,0
885,4055786132812;	259,5;	0,0;	0,0
885,4928588867188;	247,5;	0,0;	0,0
885,5801391601562;	237,25;	0,0;	0,0
885,6674194335938;	231,25;	0,0;	0,0
885,7546997070312;	231,25;	0,0;	0,0
885,8419189453125;	259,25;	0,0;	0,0
885,9291381835938;	263,25;	0,0;	0,0
886,016357421875;	255,5;	0,0;	0,0
886,103515625;	247,0;	0,0;	0,0
886,1906127929688;	259,5;	0,0;	0,0
886,2777709960938;	254,5;	0,0;	0,0
886,3648071289062;	254,5;	0,0;	0,0
886,4518432617188;	275,25;	0,0;	0,0
886,5389404296875;	263,5;	0,0;	0,0
886,6259765625;	293,25;	0,0;	0,0
886,7129516601562;	263,75;	0,0;	0,0
886,7999267578125;	246,75;	0,0;	0,0
886,8869018554688;	249,5;	0,0;	0,0
886,9737548828125;	269,25;	0,0;	0,0
887,0606689453125;	275,5;	0,0;	0,0
887,1475830078125;	269,25;	0,0;	0,0
887,2344360351562;	249,25;	0,0;	0,0
887,3212890625;	247,75;	0,0;	0,0
887,4080810546875;	262,5;	0,0;	0,0
887,4948120117188;	267,25;	0,0;	0,0
887,5816650390625;	252,0;	0,0;	0,0
887,6683959960938;	260,0;	0,0;	0,0
887,7550659179688;	263,75;	0,0;	0,0
887,841796875;	243,75;	0,0;	0,0
887,9284057617188;	257,0;	0,0;	0,0
888,0150756835938;	238,5;	0,0;	0,0
888,1016235351562;	241,0;	0,0;	0,0
888,1883544921875;	248,75;	0,0;	0,0
888,2747802734375;	271,25;	0,0;	0,0
888,3614501953125;	258,0;	0,0;	0,0
888,4478759765625;	239,75;	0,0;	0,0
888,534423828125;	257,0;	0,0;	0,0
888,620849609375;	259,25;	0,0;	0,0
888,7073974609375;	261,5;	0,0;	0,0
888,7937622070312;	256,0;	0,0;	0,0
888,8801879882812;	234,25;	0,0;	0,0
888,966552734375;	244,5;	0,0;	0,0
889,0529174804688;	241,0;	0,0;	0,0
889,1392822265625;	259,75;	0,0;	0,0
889,2255859375;	258,5;	0,0;	0,0
889,3118896484375;	265,0;	0,0;	0,0
889,398193359375;	261,75;	0,0;	0,0
889,484375;	261,0;	0,0;	0,0
889,5706787109375;	248,25;	0,0;	0,0
889,6568603515625;	247,25;	0,0;	0,0
889,7430419921875;	250,0;	0,0;	0,0
889,8291625976562;	253,75;	0,0;	0,0
889,9153442382812;	236,5;	0,0;	0,0
890,0014038085938;	213,0;	0,0;	0,0
890,0874633789062;	247,0;	0,0;	0,0
890,173583984375;	251,0;	0,0;	0,0
890,2595825195312;	244,75;	0,0;	0,0
890,3456420898438;	238,75;	0,0;	0,0
890,4315795898438;	251,5;	0,0;	0,0
890,5175170898438;	265,5;	0,0;	0,0
890,6034545898438;	264,5;	0,0;	0,0
890,689453125;	273,75;	0,0;	0,0
890,7753295898438;	263,75;	0,0;	0,0
890,8611450195312;	262,75;	0,0;	0,0
890,947021484375;	260,75;	0,0;	0,0
891,0328369140625;	235,25;	0,0;	0,0
891,1187133789062;	243,75;	0,0;	0,0
891,2044067382812;	247,75;	0,0;	0,0
891,2902221679688;	244,75;	0,0;	0,0
891,3759155273438;	253,25;	0,0;	0,0
891,4616088867188;	264,5;	0,0;	0,0
891,54736328125;	248,25;	0,0;	0,0
891,6329345703125;	263,75;	0,0;	0,0
891,7186279296875;	265,25;	0,0;	0,0
891,80419921875;	245,0;	0,0;	0,0
891,8898315429688;	249,75;	0,0;	0,0
891,975341796875;	242,0;	0,0;	0,0
892,0609130859375;	260,25;	0,0;	0,0
892,1464233398438;	247,0;	0,0;	0,0
892,23193359375;	254,0;	0,0;	0,0
892,3173828125;	272,25;	0,0;	0,0
892,4028930664062;	263,5;	0,0;	0,0
892,4882202148438;	264,5;	0,0;	0,0
892,5736083984375;	240,5;	0,0;	0,0
892,6589965820312;	238,5;	0,0;	0,0
892,744384765625;	233,5;	0,0;	0,0
892,8297119140625;	260,75;	0,0;	0,0
892,9150390625;	257,25;	0,0;	0,0
893,0003051757812;	249,75;	0,0;	0,0
893,0855712890625;	254,75;	0,0;	0,0
893,1708374023438;	234,25;	0,0;	0,0
893,2559814453125;	246,25;	0,0;	0,0
893,3412475585938;	250,5;	0,0;	0,0
893,4263916015625;	243,25;	0,0;	0,0
893,5115356445312;	257,25;	0,0;	0,0
893,5966186523438;	255,0;	0,0;	0,0
893,6817016601562;	252,5;	0,0;	0,0
893,7667846679688;	254,75;	0,0;	0,0
893,8518676757812;	252,5;	0,0;	0,0
893,9368896484375;	265,5;	0,0;	0,0
894,0218505859375;	260,0;	0,0;	0,0
894,1068725585938;	255,75;	0,0;	0,0
894,1918334960938;	289,75;	0,0;	0,0
894,2767944335938;	266,25;	0,0;	0,0
894,3616333007812;	266,25;	0,0;	0,0
894,446533203125;	251,0;	0,0;	0,0
894,5313720703125;	271,75;	0,0;	0,0
894,6162109375;	266,75;	0,0;	0,0
894,7010498046875;	243,5;	0,0;	0,0
894,7858276367188;	245,0;	0,0;	0,0
894,87060546875;	243,5;	0,0;	0,0
894,9553833007812;	244,75;	0,0;	0,0
895,0401000976562;	246,75;	0,0;	0,0
895,1248168945312;	240,25;	0,0;	0,0
895,20947265625;	240,5;	0,0;	0,0
895,2940063476562;	225,75;	0,0;	0,0
895,3787231445312;	275,75;	0,0;	0,0
895,4632568359375;	258,25;	0,0;	0,0
895,5479125976562;	256,0;	0,0;	0,0
895,6324462890625;	242,25;	0,0;	0,0
895,7169799804688;	244,25;	0,0;	0,0
895,8013916015625;	252,75;	0,0;	0,0
895,885986328125;	235,0;	0,0;	0,0
895,9703369140625;	278,5;	0,0;	0,0
896,0548706054688;	238,5;	0,0;	0,0
896,1392211914062;	259,5;	0,0;	0,0
896,2236328125;	225,25;	0,0;	0,0
896,3079833984375;	271,0;	0,0;	0,0
896,392333984375;	263,25;	0,0;	0,0
896,4766235351562;	257,25;	0,0;	0,0
896,5609130859375;	256,25;	0,0;	0,0
896,6452026367188;	234,0;	0,0;	0,0
896,7294921875;	260,5;	0,0;	0,0
896,8136596679688;	255,5;	0,0;	0,0
896,8978881835938;	244,0;	0,0;	0,0
896,9819946289062;	246,0;	0,0;	0,0
897,0662231445312;	253,5;	0,0;	0,0
897,1503295898438;	248,75;	0,0;	0,0
897,234375;	234,25;	0,0;	0,0
897,3184814453125;	252,0;	0,0;	0,0
897,4025268554688;	249,0;	0,0;	0,0
897,486572265625;	247,25;	0,0;	0,0
897,570556640625;	247,75;	0,0;	0,0
897,6546020507812;	227,0;	0,0;	0,0
897,738525390625;	249,5;	0,0;	0,0
897,8224487304688;	258,0;	0,0;	0,0
897,9063720703125;	247,5;	0,0;	0,0
897,9902954101562;	250,25;	0,0;	0,0
898,0741577148438;	270,0;	0,0;	0,0
898,157958984375;	245,25;	0,0;	0,0
898,2417602539062;	258,0;	0,0;	0,0
898,3255615234375;	253,75;	0,0;	0,0
898,4093627929688;	256,5;	0,0;	0,0
898,4931030273438;	262,5;	0,0;	0,0
898,5768432617188;	237,0;	0,0;	0,0
898,6605834960938;	235,0;	0,0;	0,0
898,7442016601562;	261,75;	0,0;	0,0
898,827880859375;	261,25;	0,0;	0,0
898,9114379882812;	230,75;	0,0;	0,0
898,9950561523438;	262,0;	0,0;	0,0
899,07861328125;	252,5;	0,0;	0,0
899,1622314453125;	244,25;	0,0;	0,0
899,2456665039062;	256,0;	0,0;	0,0
899,3292846679688;	232,75;	0,0;	0,0
899,4127197265625;	237,0;	0,0;	0,0
899,4962158203125;	246,75;	0,0;	0,0
899,57958984375;	253,0;	0,0;	0,0
899,6630859375;	270,0;	0,0;	0,0
899,7463989257812;	285,25;	0,0;	0,0
899,8297729492188;	310,0;	0,0;	0,0
899,9130859375;	263,75;	0,0;	0,0
899,9963989257812;	242,0;	0,0;	0,0
900,0797119140625;	251,5;	0,0;	0,0
900,1629638671875;	244,0;	0,0;	0,0
900,2462158203125;	258,0;	0,0;	0,0
900,3294677734375;	252,25;	0,0;	0,0
900,4127197265625;	235,0;	0,0;	0,0
900,495849609375;	247,25;	0,0;	0,0
900,5790405273438;	247,5;	0,0;	0,0
900,662109375;	228,5;	0,0;	0,0
900,7451782226562;	233,0;	0,0;	0,0
900,8283081054688;	263,0;	0,0;	0,0
900,911376953125;	242,0;	0,0;	0,0
900,9944458007812;	243,25;	0,0;	0,0
901,0774536132812;	246,75;	0,0;	0,0
901,1603393554688;	274,5;	0,0;	0,0
901,2433471679688;	246,5;	0,0;	0,0
901,3262939453125;	265,0;	0,0;	0,0
901,4091796875;	265,0;	0,0;	0,0
901,4921264648438;	249,75;	0,0;	0,0
901,574951171875;	280,25;	0,0;	0,0
901,6578369140625;	264,75;	0,0;	0,0
901,7406616210938;	260,0;	0,0;	0,0
901,8234252929688;	278,5;	0,0;	0,0
901,9061889648438;	243,25;	0,0;	0,0
901,9889526367188;	267,0;	0,0;	0,0
902,0715942382812;	272,75;	0,0;	0,0
902,1543579101562;	260,0;	0,0;	0,0
902,237060546875;	277,75;	0,0;	0,0
902,3196411132812;	262,5;	0,0;	0,0
902,40234375;	248,0;	0,0;	0,0
902,48486328125;	263,25;	0,0;	0,0
902,5674438476562;	255,5;	0,0;	0,0
902,6499633789062;	247,25;	0,0;	0,0
902,7325439453125;	270,25;	0,0;	0,0
902,8150024414062;	260,5;	0,0;	0,0
902,8975219726562;	275,0;	0,0;	0,0
902,97998046875;	283,25;	0,0;	0,0
903,0624389648438;	257,0;	0,0;	0,0
903,144775390625;	304,0;	0,0;	0,0
903,227294921875;	254,25;	0,0;	0,0
903,3095703125;	257,5;	0,0;	0,0
903,391845703125;	254,5;	0,0;	0,0
903,4742431640625;	262,0;	0,0;	0,0
903,5565185546875;	264,0;	0,0;	0,0
903,6387939453125;	260,0;	0,0;	0,0
903,7210083007812;	256,25;	0,0;	0,0
903,80322265625;	270,75;	0,0;	0,0
903,8854370117188;	251,5;	0,0;	0,0
903,9675903320312;	265,5;	0,0;	0,0
904,0497436523438;	270,0;	0,0;	0,0
904,1318969726562;	289,5;	0,0;	0,0
904,2139892578125;	310,75;	0,0;	0,0
904,2960205078125;	329,25;	0,0;	0,0
904,3780517578125;	378,75;	0,0;	0,0
904,4600830078125;	406,5;	0,0;	0,0
904,5421142578125;	396,75;	0,0;	0,0
904,6240844726562;	348,75;	0,0;	0,0
904,7060546875;	342,5;	0,0;	0,0
904,7879638671875;	359,75;	0,0;	0,0
904,869873046875;	398,25;	0,0;	0,0
904,9517211914062;	355,75;	0,0;	0,0
905,0336303710938;	311,75;	0,0;	0,0
905,115478515625;	284,25;	0,0;	0,0
905,197265625;	269,25;	0,0;	0,0
905,279052734375;	270,5;	0,0;	0,0
905,36083984375;	277,25;	0,0;	0,0
905,4425659179688;	251,25;	0,0;	0,0
905,5242919921875;	267,5;	0,0;	0,0
905,6060180664062;	259,0;	0,0;	0,0
905,6876220703125;	267,25;	0,0;	0,0
905,769287109375;	292,0;	0,0;	0,0
905,8508911132812;	282,0;	0,0;	0,0
905,9324951171875;	316,75;	0,0;	0,0
906,0140380859375;	318,5;	0,0;	0,0
906,0956420898438;	324,5;	0,0;	0,0
906,1771240234375;	309,5;	0,0;	0,0
906,2586669921875;	307,5;	0,0;	0,0
906,3400268554688;	281,25;	0,0;	0,0
906,4215698242188;	299,75;	0,0;	0,0
906,5029296875;	255,75;	0,0;	0,0
906,5844116210938;	268,75;	0,0;	0,0
906,6657104492188;	244,25;	0,0;	0,0
906,7471313476562;	265,5;	0,0;	0,0
906,828369140625;	280,75;	0,0;	0,0
906,90966796875;	270,75;	0,0;	0,0
906,990966796875;	250,25;	0,0;	0,0
907,0722045898438;	250,5;	0,0;	0,0
907,1534423828125;	250,75;	0,0;	0,0
907,2346801757812;	231,75;	0,0;	0,0
907,3158569335938;	271,75;	0,0;	0,0
907,3970336914062;	255,5;	0,0;	0,0
907,4781494140625;	265,75;	0,0;	0,0
907,559326171875;	247,25;	0,0;	0,0
907,640380859375;	260,75;	0,0;	0,0
907,721435546875;	257,25;	0,0;	0,0
907,802490234375;	231,25;	0,0;	0,0
907,8834838867188;	264,25;	0,0;	0,0
907,9644775390625;	245,5;	0,0;	0,0
908,0454711914062;	255,75;	0,0;	0,0
908,1264038085938;	239,0;	0,0;	0,0
908,2073364257812;	247,5;	0,0;	0,0
908,2882080078125;	242,5;	0,0;	0,0
908,3690795898438;	253,25;	0,0;	0,0
908,449951171875;	252,25;	0,0;	0,0
908,53076171875;	247,5;	0,0;	0,0
908,6115112304688;	258,75;	0,0;	0,0
908,6923217773438;	255,25;	0,0;	0,0
908,7730712890625;	258,0;	0,0;	0,0
908,8538208007812;	257,5;	0,0;	0,0
908,9345092773438;	256,75;	0,0;	0,0
909,0151977539062;	258,25;	0,0;	0,0
909,0958251953125;	271,5;	0,0;	0,0
909,1764526367188;	253,5;	0,0;	0,0
909,257080078125;	260,75;	0,0;	0,0
909,337646484375;	248,25;	0,0;	0,0
909,418212890625;	270,5;	0,0;	0,0
909,4987182617188;	257,25;	0,0;	0,0
909,5792236328125;	232,75;	0,0;	0,0
909,65966796875;	247,25;	0,0;	0,0
909,7401733398438;	257,0;	0,0;	0,0
909,820556640625;	257,25;	0,0;	0,0
909,9010009765625;	271,5;	0,0;	0,0
909,9813842773438;	247,75;	0,0;	0,0
910,061767578125;	245,5;	0,0;	0,0
910,1420288085938;	252,5;	0,0;	0,0
910,222412109375;	248,0;	0,0;	0,0
910,3026733398438;	239,75;	0,0;	0,0
910,3829345703125;	241,25;	0,0;	0,0
910,4631958007812;	240,75;	0,0;	0,0
910,5433959960938;	245,25;	0,0;	0,0
910,6235961914062;	236,5;	0,0;	0,0
910,7037353515625;	244,25;	0,0;	0,0
910,783935546875;	255,5;	0,0;	0,0
910,864013671875;	255,75;	0,0;	0,0
910,944091796875;	253,5;	0,0;	0,0
911,024169921875;	243,25;	0,0;	0,0
911,104248046875;	256,0;	0,0;	0,0
911,1842651367188;	233,75;	0,0;	0,0
911,2642822265625;	282,25;	0,0;	0,0
911,3441772460938;	253,25;	0,0;	0,0
911,4241943359375;	248,0;	0,0;	0,0
911,5040893554688;	251,5;	0,0;	0,0
911,5840454101562;	241,25;	0,0;	0,0
911,6638793945312;	251,0;	0,0;	0,0
911,7437133789062;	236,0;	0,0;	0,0
911,8235473632812;	267,0;	0,0;	0,0
911,9033813476562;	235,75;	0,0;	0,0
911,983154296875;	234,0;	0,0;	0,0
912,0629272460938;	225,5;	0,0;	0,0
912,1426391601562;	273,0;	0,0;	0,0
912,2223510742188;	249,0;	0,0;	0,0
912,302001953125;	242,25;	0,0;	0,0
912,3817138671875;	244,0;	0,0;	0,0
912,4613037109375;	257,25;	0,0;	0,0
912,5409545898438;	260,0;	0,0;	0,0
912,6205444335938;	256,5;	0,0;	0,0
912,7000732421875;	246,0;	0,0;	0,0
912,7796630859375;	247,0;	0,0;	0,0
912,8590698242188;	222,0;	0,0;	0,0
912,9385986328125;	242,5;	0,0;	0,0
913,0181274414062;	240,75;	0,0;	0,0
913,0974731445312;	250,5;	0,0;	0,0
913,1769409179688;	253,0;	0,0;	0,0
913,2562866210938;	246,0;	0,0;	0,0
913,335693359375;	250,75;	0,0;	0,0
913,4149780273438;	265,75;	0,0;	0,0
913,494384765625;	232,25;	0,0;	0,0
913,5735473632812;	252,5;	0,0;	0,0
913,6528930664062;	263,0;	0,0;	0,0
913,7321166992188;	234,75;	0,0;	0,0
913,811279296875;	233,25;	0,0;	0,0
913,8905639648438;	255,0;	0,0;	0,0
913,9696655273438;	253,75;	0,0;	0,0
914,048828125;	249,0;	0,0;	0,0
914,1279296875;	252,75;	0,0;	0,0
914,20703125;	249,5;	0,0;	0,0
914,2861328125;	255,5;	0,0;	0,0
914,3651733398438;	254,25;	0,0;	0,0
914,4441528320312;	241,5;	0,0;	0,0
914,523193359375;	243,75;	0,0;	0,0
914,6021728515625;	244,25;	0,0;	0,0
914,68115234375;	237,25;	0,0;	0,0
914,7600708007812;	232,0;	0,0;	0,0
914,8389282226562;	245,25;	0,0;	0,0
914,9178466796875;	267,25;	0,0;	0,0
914,9967041015625;	242,0;	0,0;	0,0
915,0755004882812;	260,5;	0,0;	0,0
915,1543579101562;	254,0;	0,0;	0,0
915,2330932617188;	247,5;	0,0;	0,0
915,3118896484375;	249,5;	0,0;	0,0
915,3905639648438;	231,0;	0,0;	0,0
915,4692993164062;	273,25;	0,0;	0,0
915,5479736328125;	245,0;	0,0;	0,0
915,6266479492188;	246,75;	0,0;	0,0
915,7052612304688;	254,75;	0,0;	0,0
915,7838745117188;	239,5;	0,0;	0,0
915,8624877929688;	243,0;	0,0;	0,0
915,9409790039062;	243,5;	0,0;	0,0
916,01953125;	252,25;	0,0;	0,0
916,0980834960938;	241,25;	0,0;	0,0
916,1765747070312;	237,75;	0,0;	0,0
916,2550048828125;	251,5;	0,0;	0,0
916,3334350585938;	244,75;	0,0;	0,0
916,411865234375;	242,0;	0,0;	0,0
916,4901733398438;	233,0;	0,0;	0,0
916,568603515625;	243,75;	0,0;	0,0
916,6469116210938;	240,75;	0,0;	0,0
916,7252807617188;	262,75;	0,0;	0,0
916,803466796875;	264,0;	0,0;	0,0
916,8818359375;	244,5;	0,0;	0,0
916,9600219726562;	241,25;	0,0;	0,0
917,0382690429688;	224,75;	0,0;	0,0
917,1163940429688;	236,75;	0,0;	0,0
917,1946411132812;	261,0;	0,0;	0,0
917,272705078125;	238,25;	0,0;	0,0
917,350830078125;	245,0;	0,0;	0,0
917,428955078125;	238,25;	0,0;	0,0
917,507080078125;	241,25;	0,0;	0,0
917,5850830078125;	220,0;	0,0;	0,0
917,6630859375;	240,5;	0,0;	0,0
917,7410888671875;	250,0;	0,0;	0,0
917,819091796875;	247,5;	0,0;	0,0
917,8970336914062;	234,5;	0,0;	0,0
917,9749145507812;	240,0;	0,0;	0,0
918,0528564453125;	265,25;	0,0;	0,0
918,1307373046875;	233,0;	0,0;	0,0
918,2085571289062;	231,25;	0,0;	0,0
918,286376953125;	264,75;	0,0;	0,0
918,3641357421875;	241,0;	0,0;	0,0
918,4419555664062;	229,0;	0,0;	0,0
918,5197143554688;	238,0;	0,0;	0,0
918,597412109375;	244,5;	0,0;	0,0
918,6751098632812;	253,25;	0,0;	0,0
918,7528076171875;	267,0;	0,0;	0,0
918,8304443359375;	239,5;	0,0;	0,0
918,9080810546875;	250,5;	0,0;	0,0
918,9856567382812;	241,25;	0,0;	0,0
919,0632934570312;	226,0;	0,0;	0,0
919,1408081054688;	242,5;	0,0;	0,0
919,2183227539062;	237,75;	0,0;	0,0
919,2958374023438;	228,75;	0,0;	0,0
919,373291015625;	240,0;	0,0;	0,0
919,4507446289062;	255,5;	0,0;	0,0
919,5281982421875;	212,25;	0,0;	0,0
919,6056518554688;	238,75;	0,0;	0,0
919,6830444335938;	251,75;	0,0;	0,0
919,7603759765625;	222,0;	0,0;	0,0
919,837646484375;	222,25;	0,0;	0,0
919,9149780273438;	251,5;	0,0;	0,0
919,9921875;	255,25;	0,0;	0,0
920,0695190429688;	247,75;	0,0;	0,0
920,1466674804688;	252,5;	0,0;	0,0
920,2239990234375;	249,0;	0,0;	0,0
920,3010864257812;	227,25;	0,0;	0,0
920,3783569335938;	251,5;	0,0;	0,0
920,4553833007812;	232,75;	0,0;	0,0
920,5325927734375;	238,75;	0,0;	0,0
920,609619140625;	243,0;	0,0;	0,0
920,6866455078125;	237,5;	0,0;	0,0
920,763671875;	238,25;	0,0;	0,0
920,8406982421875;	258,75;	0,0;	0,0
920,9176635742188;	259,25;	0,0;	0,0
920,99462890625;	242,0;	0,0;	0,0
921,0715942382812;	238,25;	0,0;	0,0
921,1485595703125;	228,5;	0,0;	0,0
921,2254028320312;	244,25;	0,0;	0,0
921,30224609375;	250,0;	0,0;	0,0
921,3790893554688;	247,5;	0,0;	0,0
921,4559326171875;	239,5;	0,0;	0,0
921,53271484375;	234,25;	0,0;	0,0
921,6094970703125;	234,5;	0,0;	0,0
921,6862182617188;	229,5;	0,0;	0,0
921,7628784179688;	247,25;	0,0;	0,0
921,839599609375;	246,75;	0,0;	0,0
921,9163208007812;	241,5;	0,0;	0,0
921,992919921875;	251,25;	0,0;	0,0
922,0695190429688;	269,75;	0,0;	0,0
922,1461181640625;	232,0;	0,0;	0,0
922,2227172851562;	250,25;	0,0;	0,0
922,2992553710938;	241,25;	0,0;	0,0
922,375732421875;	232,5;	0,0;	0,0
922,4522094726562;	242,25;	0,0;	0,0
922,5286865234375;	243,0;	0,0;	0,0
922,6051025390625;	232,0;	0,0;	0,0
922,6815795898438;	245,5;	0,0;	0,0
922,7579345703125;	237,25;	0,0;	0,0
922,8342895507812;	260,0;	0,0;	0,0
922,9107055664062;	244,5;	0,0;	0,0
922,9869995117188;	232,5;	0,0;	0,0
923,063232421875;	230,75;	0,0;	0,0
923,1394653320312;	233,0;	0,0;	0,0
923,2158203125;	239,5;	0,0;	0,0
923,2919311523438;	242,75;	0,0;	0,0
923,3682250976562;	232,75;	0,0;	0,0
923,4442749023438;	231,75;	0,0;	0,0
923,5205688476562;	243,5;	0,0;	0,0
923,5966186523438;	250,75;	0,0;	0,0
923,6727294921875;	240,75;	0,0;	0,0
923,748779296875;	248,75;	0,0;	0,0
923,8248291015625;	245,25;	0,0;	0,0
923,9008178710938;	241,75;	0,0;	0,0
923,976806640625;	243,25;	0,0;	0,0
924,0527954101562;	250,25;	0,0;	0,0
924,128662109375;	230,75;	0,0;	0,0
924,2046508789062;	268,5;	0,0;	0,0
924,2805786132812;	244,25;	0,0;	0,0
924,3564453125;	251,0;	0,0;	0,0
924,4322509765625;	237,5;	0,0;	0,0
924,5081176757812;	249,75;	0,0;	0,0
924,5838623046875;	258,75;	0,0;	0,0
924,65966796875;	250,0;	0,0;	0,0
924,7353515625;	242,0;	0,0;	0,0
924,8111572265625;	249,25;	0,0;	0,0
924,8868408203125;	248,75;	0,0;	0,0
924,9624633789062;	250,75;	0,0;	0,0
925,0381469726562;	250,0;	0,0;	0,0
925,11376953125;	249,5;	0,0;	0,0
925,1893920898438;	262,5;	0,0;	0,0
925,2649536132812;	243,75;	0,0;	0,0
925,3404541015625;	240,75;	0,0;	0,0
925,416015625;	268,5;	0,0;	0,0
925,4915161132812;	282,25;	0,0;	0,0
925,5669555664062;	253,75;	0,0;	0,0
925,6423950195312;	277,25;	0,0;	0,0
925,7178955078125;	289,75;	0,0;	0,0
925,793212890625;	294,75;	0,0;	0,0
925,8685913085938;	282,0;	0,0;	0,0
925,9439697265625;	293,75;	0,0;	0,0
926,0193481445312;	305,0;	0,0;	0,0
926,0946044921875;	335,75;	0,0;	0,0
926,1698608398438;	335,25;	0,0;	0,0
926,2451171875;	358,0;	0,0;	0,0
926,3203735351562;	366,25;	0,0;	0,0
926,3955078125;	380,0;	0,0;	0,0
926,470703125;	372,25;	0,0;	0,0
926,5458374023438;	386,0;	0,0;	0,0
926,6209716796875;	0,0;	0,0;	0,0
