-0.5	0.5
Integration time [ms]:	1.05
Averaging Nr. [scans]:1
Smoothing Nr. [pixels]:0
Data measured with spectrometer [name]:b'1703278U8'
Wave	;Sample	;Dark	;Reference	;Scope	
[nm]	;[counts]	;[counts]	;[counts]	
 
619,9722900390625;	401,75;	0,0;	0,0
620,0406494140625;	414,75;	0,0;	0,0
620,1089477539062;	411,75;	0,0;	0,0
620,17724609375;	421,75;	0,0;	0,0
620,2455444335938;	437,5;	0,0;	0,0
620,3137817382812;	443,75;	0,0;	0,0
620,382080078125;	439,25;	0,0;	0,0
620,4503173828125;	424,75;	0,0;	0,0
620,5185546875;	444,25;	0,0;	0,0
620,5867919921875;	432,75;	0,0;	0,0
620,6549072265625;	451,25;	0,0;	0,0
620,72314453125;	441,0;	0,0;	0,0
620,7913208007812;	434,25;	0,0;	0,0
620,8594360351562;	436,5;	0,0;	0,0
620,9276123046875;	484,25;	0,0;	0,0
620,9957885742188;	418,0;	0,0;	0,0
621,0638427734375;	434,5;	0,0;	0,0
621,1319580078125;	474,0;	0,0;	0,0
621,2000732421875;	438,25;	0,0;	0,0
621,2681274414062;	467,5;	0,0;	0,0
621,336181640625;	483,5;	0,0;	0,0
621,404296875;	467,25;	0,0;	0,0
621,4722900390625;	480,5;	0,0;	0,0
621,540283203125;	521,5;	0,0;	0,0
621,6083374023438;	503,25;	0,0;	0,0
621,67626953125;	454,75;	0,0;	0,0
621,7442626953125;	493,5;	0,0;	0,0
621,812255859375;	515,75;	0,0;	0,0
621,8801879882812;	480,25;	0,0;	0,0
621,9481201171875;	537,5;	0,0;	0,0
622,0159912109375;	574,25;	0,0;	0,0
622,0839233398438;	530,25;	0,0;	0,0
622,15185546875;	498,25;	0,0;	0,0
622,2196655273438;	529,5;	0,0;	0,0
622,2875366210938;	515,25;	0,0;	0,0
622,3554077148438;	492,0;	0,0;	0,0
622,4232177734375;	533,5;	0,0;	0,0
622,4910278320312;	547,5;	0,0;	0,0
622,5588989257812;	545,75;	0,0;	0,0
622,6266479492188;	548,5;	0,0;	0,0
622,6943969726562;	544,5;	0,0;	0,0
622,76220703125;	548,75;	0,0;	0,0
622,8298950195312;	567,25;	0,0;	0,0
622,8976440429688;	628,75;	0,0;	0,0
622,9653930664062;	685,75;	0,0;	0,0
623,0330810546875;	743,75;	0,0;	0,0
623,1007080078125;	794,75;	0,0;	0,0
623,1683349609375;	816,5;	0,0;	0,0
623,2360229492188;	602,75;	0,0;	0,0
623,3037109375;	640,25;	0,0;	0,0
623,3712768554688;	599,25;	0,0;	0,0
623,43896484375;	580,75;	0,0;	0,0
623,506591796875;	600,25;	0,0;	0,0
623,5740966796875;	570,75;	0,0;	0,0
623,6417236328125;	601,0;	0,0;	0,0
623,7092895507812;	562,0;	0,0;	0,0
623,7767944335938;	556,75;	0,0;	0,0
623,8443603515625;	568,5;	0,0;	0,0
623,9119262695312;	562,75;	0,0;	0,0
623,9793701171875;	574,0;	0,0;	0,0
624,046875;	578,0;	0,0;	0,0
624,1143798828125;	556,75;	0,0;	0,0
624,1818237304688;	565,75;	0,0;	0,0
624,249267578125;	571,75;	0,0;	0,0
624,316650390625;	590,0;	0,0;	0,0
624,3840942382812;	586,5;	0,0;	0,0
624,4515380859375;	599,75;	0,0;	0,0
624,518798828125;	585,25;	0,0;	0,0
624,5862426757812;	583,75;	0,0;	0,0
624,6536254882812;	648,5;	0,0;	0,0
624,7208862304688;	652,75;	0,0;	0,0
624,7882690429688;	575,25;	0,0;	0,0
624,8555908203125;	582,0;	0,0;	0,0
624,9228515625;	584,75;	0,0;	0,0
624,9901733398438;	555,75;	0,0;	0,0
625,0574951171875;	519,25;	0,0;	0,0
625,1246948242188;	573,0;	0,0;	0,0
625,1919555664062;	614,5;	0,0;	0,0
625,2592163085938;	676,75;	0,0;	0,0
625,3263549804688;	723,25;	0,0;	0,0
625,3936157226562;	611,0;	0,0;	0,0
625,4608154296875;	582,0;	0,0;	0,0
625,5279541015625;	572,25;	0,0;	0,0
625,5950927734375;	532,75;	0,0;	0,0
625,6622314453125;	584,0;	0,0;	0,0
625,7293701171875;	550,0;	0,0;	0,0
625,7965087890625;	560,0;	0,0;	0,0
625,8635864257812;	508,5;	0,0;	0,0
625,9306640625;	534,75;	0,0;	0,0
625,9977416992188;	521,5;	0,0;	0,0
626,0647583007812;	483,5;	0,0;	0,0
626,1318359375;	552,5;	0,0;	0,0
626,1989135742188;	529,25;	0,0;	0,0
626,265869140625;	487,25;	0,0;	0,0
626,3328857421875;	509,25;	0,0;	0,0
626,39990234375;	467,75;	0,0;	0,0
626,466796875;	537,25;	0,0;	0,0
626,5338134765625;	537,5;	0,0;	0,0
626,6007690429688;	507,0;	0,0;	0,0
626,6676635742188;	500,5;	0,0;	0,0
626,734619140625;	488,25;	0,0;	0,0
626,8014526367188;	492,5;	0,0;	0,0
626,8683471679688;	476,25;	0,0;	0,0
626,9352416992188;	515,0;	0,0;	0,0
627,0020141601562;	455,75;	0,0;	0,0
627,0689086914062;	511,0;	0,0;	0,0
627,1357421875;	482,75;	0,0;	0,0
627,2025756835938;	486,5;	0,0;	0,0
627,2694091796875;	492,0;	0,0;	0,0
627,3361206054688;	450,25;	0,0;	0,0
627,4028930664062;	470,0;	0,0;	0,0
627,4696655273438;	470,25;	0,0;	0,0
627,5364379882812;	464,75;	0,0;	0,0
627,6031494140625;	464,5;	0,0;	0,0
627,6697998046875;	474,0;	0,0;	0,0
627,7365112304688;	492,0;	0,0;	0,0
627,8031616210938;	479,0;	0,0;	0,0
627,869873046875;	464,25;	0,0;	0,0
627,9365234375;	461,75;	0,0;	0,0
628,0031127929688;	437,0;	0,0;	0,0
628,0697631835938;	487,0;	0,0;	0,0
628,1363525390625;	466,0;	0,0;	0,0
628,2030029296875;	456,0;	0,0;	0,0
628,26953125;	430,25;	0,0;	0,0
628,3361206054688;	446,0;	0,0;	0,0
628,4026489257812;	485,5;	0,0;	0,0
628,46923828125;	424,5;	0,0;	0,0
628,5357055664062;	426,5;	0,0;	0,0
628,6022338867188;	433,0;	0,0;	0,0
628,6687622070312;	439,5;	0,0;	0,0
628,7352294921875;	440,75;	0,0;	0,0
628,8016357421875;	427,25;	0,0;	0,0
628,8681640625;	425,25;	0,0;	0,0
628,9345703125;	445,5;	0,0;	0,0
629,0010375976562;	450,25;	0,0;	0,0
629,0673217773438;	433,25;	0,0;	0,0
629,1337890625;	457,5;	0,0;	0,0
629,2001953125;	466,0;	0,0;	0,0
629,2664794921875;	400,25;	0,0;	0,0
629,3328247070312;	431,5;	0,0;	0,0
629,3992309570312;	388,0;	0,0;	0,0
629,4655151367188;	422,75;	0,0;	0,0
629,5317993164062;	410,5;	0,0;	0,0
629,59814453125;	427,0;	0,0;	0,0
629,6643676757812;	429,75;	0,0;	0,0
629,7306518554688;	433,5;	0,0;	0,0
629,7969360351562;	416,75;	0,0;	0,0
629,8631591796875;	461,25;	0,0;	0,0
629,9293212890625;	437,0;	0,0;	0,0
629,9955444335938;	453,25;	0,0;	0,0
630,061767578125;	454,25;	0,0;	0,0
630,1278686523438;	473,75;	0,0;	0,0
630,194091796875;	536,5;	0,0;	0,0
630,26025390625;	493,5;	0,0;	0,0
630,3263549804688;	446,0;	0,0;	0,0
630,3924560546875;	435,5;	0,0;	0,0
630,45849609375;	433,75;	0,0;	0,0
630,524658203125;	397,75;	0,0;	0,0
630,5906982421875;	408,75;	0,0;	0,0
630,65673828125;	385,5;	0,0;	0,0
630,7228393554688;	388,75;	0,0;	0,0
630,7888793945312;	420,75;	0,0;	0,0
630,8548583984375;	410,75;	0,0;	0,0
630,9208984375;	427,25;	0,0;	0,0
630,98681640625;	391,75;	0,0;	0,0
631,0527954101562;	417,75;	0,0;	0,0
631,1187744140625;	417,75;	0,0;	0,0
631,1846923828125;	405,75;	0,0;	0,0
631,2506713867188;	388,0;	0,0;	0,0
631,3165893554688;	386,25;	0,0;	0,0
631,3824462890625;	407,25;	0,0;	0,0
631,4483032226562;	416,25;	0,0;	0,0
631,51416015625;	420,75;	0,0;	0,0
631,5800170898438;	437,0;	0,0;	0,0
631,6459350585938;	431,0;	0,0;	0,0
631,711669921875;	395,0;	0,0;	0,0
631,7775268554688;	437,0;	0,0;	0,0
631,8433227539062;	477,75;	0,0;	0,0
631,9090576171875;	445,5;	0,0;	0,0
631,974853515625;	432,0;	0,0;	0,0
632,0406494140625;	398,5;	0,0;	0,0
632,1063232421875;	378,5;	0,0;	0,0
632,1720581054688;	390,75;	0,0;	0,0
632,23779296875;	390,75;	0,0;	0,0
632,303466796875;	403,5;	0,0;	0,0
632,369140625;	394,25;	0,0;	0,0
632,4348754882812;	420,75;	0,0;	0,0
632,5004272460938;	382,75;	0,0;	0,0
632,5661010742188;	400,25;	0,0;	0,0
632,6317138671875;	341,75;	0,0;	0,0
632,6973266601562;	389,0;	0,0;	0,0
632,762939453125;	391,25;	0,0;	0,0
632,8284912109375;	396,25;	0,0;	0,0
632,89404296875;	363,5;	0,0;	0,0
632,9595947265625;	362,25;	0,0;	0,0
633,025146484375;	381,5;	0,0;	0,0
633,0906372070312;	374,5;	0,0;	0,0
633,1561889648438;	398,0;	0,0;	0,0
633,2216186523438;	389,75;	0,0;	0,0
633,287109375;	411,0;	0,0;	0,0
633,3526000976562;	386,25;	0,0;	0,0
633,4180297851562;	388,75;	0,0;	0,0
633,4835205078125;	436,5;	0,0;	0,0
633,5488891601562;	449,75;	0,0;	0,0
633,6142578125;	479,0;	0,0;	0,0
633,6796875;	450,5;	0,0;	0,0
633,7450561523438;	446,75;	0,0;	0,0
633,8103637695312;	421,25;	0,0;	0,0
633,8757934570312;	400,75;	0,0;	0,0
633,9410400390625;	404,5;	0,0;	0,0
634,00634765625;	388,75;	0,0;	0,0
634,0717163085938;	410,75;	0,0;	0,0
634,136962890625;	396,0;	0,0;	0,0
634,2022094726562;	399,75;	0,0;	0,0
634,2675170898438;	374,25;	0,0;	0,0
634,3327026367188;	383,25;	0,0;	0,0
634,39794921875;	383,75;	0,0;	0,0
634,4631958007812;	404,0;	0,0;	0,0
634,5283813476562;	379,75;	0,0;	0,0
634,5935668945312;	388,5;	0,0;	0,0
634,6587524414062;	357,5;	0,0;	0,0
634,7238159179688;	377,25;	0,0;	0,0
634,7890014648438;	374,5;	0,0;	0,0
634,8541870117188;	364,75;	0,0;	0,0
634,919189453125;	401,25;	0,0;	0,0
634,9843139648438;	377,25;	0,0;	0,0
635,0493774414062;	379,0;	0,0;	0,0
635,114501953125;	366,75;	0,0;	0,0
635,1795654296875;	418,75;	0,0;	0,0
635,2445068359375;	365,5;	0,0;	0,0
635,3095703125;	389,5;	0,0;	0,0
635,3746337890625;	395,5;	0,0;	0,0
635,4395751953125;	365,25;	0,0;	0,0
635,5045776367188;	377,75;	0,0;	0,0
635,5695190429688;	380,25;	0,0;	0,0
635,6344604492188;	395,75;	0,0;	0,0
635,6994018554688;	362,25;	0,0;	0,0
635,7642822265625;	361,5;	0,0;	0,0
635,8292236328125;	417,75;	0,0;	0,0
635,8941040039062;	380,5;	0,0;	0,0
635,9590454101562;	390,25;	0,0;	0,0
636,0238037109375;	388,5;	0,0;	0,0
636,0886840820312;	401,25;	0,0;	0,0
636,1535034179688;	391,25;	0,0;	0,0
636,2183227539062;	364,75;	0,0;	0,0
636,2831420898438;	384,5;	0,0;	0,0
636,3478393554688;	399,75;	0,0;	0,0
636,4126586914062;	372,0;	0,0;	0,0
636,4774169921875;	368,0;	0,0;	0,0
636,5421142578125;	361,25;	0,0;	0,0
636,60693359375;	379,25;	0,0;	0,0
636,6716918945312;	382,25;	0,0;	0,0
636,736328125;	371,5;	0,0;	0,0
636,801025390625;	404,5;	0,0;	0,0
636,86572265625;	383,0;	0,0;	0,0
636,9302978515625;	356,5;	0,0;	0,0
636,9949951171875;	349,0;	0,0;	0,0
637,0596313476562;	357,25;	0,0;	0,0
637,1242065429688;	348,25;	0,0;	0,0
637,1888427734375;	357,0;	0,0;	0,0
637,2533569335938;	383,75;	0,0;	0,0
637,31787109375;	356,0;	0,0;	0,0
637,3824462890625;	334,0;	0,0;	0,0
637,4469604492188;	364,5;	0,0;	0,0
637,5115356445312;	400,0;	0,0;	0,0
637,5760498046875;	371,75;	0,0;	0,0
637,6405029296875;	376,5;	0,0;	0,0
637,7050170898438;	344,0;	0,0;	0,0
637,7694702148438;	365,25;	0,0;	0,0
637,8339233398438;	355,0;	0,0;	0,0
637,8983764648438;	376,25;	0,0;	0,0
637,9627685546875;	397,25;	0,0;	0,0
638,027099609375;	379,5;	0,0;	0,0
638,091552734375;	388,5;	0,0;	0,0
638,1559448242188;	386,0;	0,0;	0,0
638,2202758789062;	377,0;	0,0;	0,0
638,28466796875;	365,5;	0,0;	0,0
638,3489990234375;	362,75;	0,0;	0,0
638,4132690429688;	363,25;	0,0;	0,0
638,4776000976562;	348,5;	0,0;	0,0
638,5418701171875;	359,0;	0,0;	0,0
638,6061401367188;	385,75;	0,0;	0,0
638,6703491210938;	363,25;	0,0;	0,0
638,7345581054688;	350,5;	0,0;	0,0
638,798828125;	367,75;	0,0;	0,0
638,8630981445312;	357,5;	0,0;	0,0
638,9271850585938;	349,75;	0,0;	0,0
638,9913940429688;	363,0;	0,0;	0,0
639,0556030273438;	363,75;	0,0;	0,0
639,1197509765625;	412,75;	0,0;	0,0
639,1838989257812;	369,25;	0,0;	0,0
639,248046875;	377,25;	0,0;	0,0
639,3121337890625;	417,5;	0,0;	0,0
639,376220703125;	535,75;	0,0;	0,0
639,4403076171875;	507,25;	0,0;	0,0
639,5043334960938;	382,0;	0,0;	0,0
639,568359375;	356,5;	0,0;	0,0
639,6324462890625;	372,25;	0,0;	0,0
639,6964721679688;	390,75;	0,0;	0,0
639,7604370117188;	385,0;	0,0;	0,0
639,8244018554688;	383,5;	0,0;	0,0
639,888427734375;	413,75;	0,0;	0,0
639,952392578125;	489,0;	0,0;	0,0
640,0162963867188;	655,25;	0,0;	0,0
640,0802612304688;	666,0;	0,0;	0,0
640,1442260742188;	409,25;	0,0;	0,0
640,2080078125;	366,75;	0,0;	0,0
640,27197265625;	389,0;	0,0;	0,0
640,3358154296875;	363,5;	0,0;	0,0
640,399658203125;	373,0;	0,0;	0,0
640,4635620117188;	369,5;	0,0;	0,0
640,52734375;	356,75;	0,0;	0,0
640,5911865234375;	345,5;	0,0;	0,0
640,6549682617188;	348,25;	0,0;	0,0
640,7188110351562;	389,5;	0,0;	0,0
640,782470703125;	390,25;	0,0;	0,0
640,8462524414062;	418,75;	0,0;	0,0
640,9099731445312;	374,25;	0,0;	0,0
640,9736938476562;	384,5;	0,0;	0,0
641,0374755859375;	401,75;	0,0;	0,0
641,10107421875;	385,0;	0,0;	0,0
641,164794921875;	488,25;	0,0;	0,0
641,2284545898438;	516,0;	0,0;	0,0
641,2920532226562;	398,75;	0,0;	0,0
641,3557739257812;	360,75;	0,0;	0,0
641,4193725585938;	384,0;	0,0;	0,0
641,4829711914062;	352,0;	0,0;	0,0
641,5465698242188;	366,5;	0,0;	0,0
641,610107421875;	349,25;	0,0;	0,0
641,6737060546875;	321,75;	0,0;	0,0
641,7372436523438;	363,0;	0,0;	0,0
641,80078125;	366,0;	0,0;	0,0
641,8642578125;	389,25;	0,0;	0,0
641,9277954101562;	383,5;	0,0;	0,0
641,9912109375;	401,25;	0,0;	0,0
642,0546875;	458,0;	0,0;	0,0
642,1182250976562;	470,5;	0,0;	0,0
642,1815795898438;	441,0;	0,0;	0,0
642,2450561523438;	420,25;	0,0;	0,0
642,3084716796875;	367,0;	0,0;	0,0
642,371826171875;	360,0;	0,0;	0,0
642,4352416992188;	354,75;	0,0;	0,0
642,4985961914062;	359,5;	0,0;	0,0
642,5618896484375;	339,0;	0,0;	0,0
642,625244140625;	348,0;	0,0;	0,0
642,6885986328125;	361,0;	0,0;	0,0
642,7518920898438;	357,25;	0,0;	0,0
642,815185546875;	334,75;	0,0;	0,0
642,8784790039062;	382,0;	0,0;	0,0
642,9417114257812;	366,5;	0,0;	0,0
643,0050048828125;	388,5;	0,0;	0,0
643,0682373046875;	443,0;	0,0;	0,0
643,1314086914062;	478,25;	0,0;	0,0
643,1946411132812;	395,5;	0,0;	0,0
643,2577514648438;	356,25;	0,0;	0,0
643,3209838867188;	369,25;	0,0;	0,0
643,3841552734375;	363,5;	0,0;	0,0
643,447265625;	348,5;	0,0;	0,0
643,5104370117188;	345,75;	0,0;	0,0
643,5735473632812;	377,5;	0,0;	0,0
643,6365966796875;	367,5;	0,0;	0,0
643,69970703125;	397,25;	0,0;	0,0
643,7628173828125;	450,75;	0,0;	0,0
643,8258056640625;	627,25;	0,0;	0,0
643,888916015625;	942,25;	0,0;	0,0
643,9519653320312;	1205,75;	0,0;	0,0
644,0148315429688;	685,0;	0,0;	0,0
644,077880859375;	365,25;	0,0;	0,0
644,140869140625;	376,5;	0,0;	0,0
644,2037963867188;	349,0;	0,0;	0,0
644,2667846679688;	341,75;	0,0;	0,0
644,3297119140625;	359,0;	0,0;	0,0
644,3926391601562;	359,5;	0,0;	0,0
644,45556640625;	339,75;	0,0;	0,0
644,5184326171875;	355,0;	0,0;	0,0
644,5812377929688;	346,75;	0,0;	0,0
644,6441650390625;	364,5;	0,0;	0,0
644,7069702148438;	336,75;	0,0;	0,0
644,7698364257812;	339,75;	0,0;	0,0
644,8327026367188;	358,0;	0,0;	0,0
644,8953857421875;	383,25;	0,0;	0,0
644,9581909179688;	435,75;	0,0;	0,0
645,02099609375;	517,75;	0,0;	0,0
645,083740234375;	431,25;	0,0;	0,0
645,146484375;	340,5;	0,0;	0,0
645,209228515625;	349,0;	0,0;	0,0
645,2719116210938;	358,75;	0,0;	0,0
645,3345947265625;	345,75;	0,0;	0,0
645,3972778320312;	365,5;	0,0;	0,0
645,4599609375;	390,75;	0,0;	0,0
645,5225830078125;	356,5;	0,0;	0,0
645,585205078125;	360,75;	0,0;	0,0
645,6478881835938;	372,25;	0,0;	0,0
645,71044921875;	365,25;	0,0;	0,0
645,7730102539062;	384,25;	0,0;	0,0
645,8356323242188;	372,75;	0,0;	0,0
645,898193359375;	341,75;	0,0;	0,0
645,960693359375;	372,5;	0,0;	0,0
646,0232543945312;	368,5;	0,0;	0,0
646,0858154296875;	422,0;	0,0;	0,0
646,1482543945312;	469,75;	0,0;	0,0
646,2107543945312;	645,25;	0,0;	0,0
646,273193359375;	971,25;	0,0;	0,0
646,335693359375;	849,75;	0,0;	0,0
646,3980712890625;	409,0;	0,0;	0,0
646,4605712890625;	348,75;	0,0;	0,0
646,5228881835938;	361,5;	0,0;	0,0
646,5853881835938;	342,0;	0,0;	0,0
646,647705078125;	348,25;	0,0;	0,0
646,7100830078125;	366,5;	0,0;	0,0
646,7724609375;	369,25;	0,0;	0,0
646,834716796875;	382,75;	0,0;	0,0
646,8970947265625;	355,5;	0,0;	0,0
646,9594116210938;	357,5;	0,0;	0,0
647,0216064453125;	351,25;	0,0;	0,0
647,083984375;	379,0;	0,0;	0,0
647,146240234375;	422,25;	0,0;	0,0
647,2084350585938;	468,25;	0,0;	0,0
647,2706909179688;	381,25;	0,0;	0,0
647,3329467773438;	368,0;	0,0;	0,0
647,3950805664062;	355,5;	0,0;	0,0
647,4573364257812;	348,0;	0,0;	0,0
647,5194702148438;	365,5;	0,0;	0,0
647,5816040039062;	362,0;	0,0;	0,0
647,6437377929688;	350,5;	0,0;	0,0
647,7058715820312;	347,75;	0,0;	0,0
647,7680053710938;	338,5;	0,0;	0,0
647,830078125;	363,25;	0,0;	0,0
647,89208984375;	366,5;	0,0;	0,0
647,9541625976562;	341,75;	0,0;	0,0
648,0162353515625;	375,25;	0,0;	0,0
648,0783081054688;	342,75;	0,0;	0,0
648,1403198242188;	366,5;	0,0;	0,0
648,2023315429688;	386,25;	0,0;	0,0
648,2642822265625;	349,75;	0,0;	0,0
648,3262939453125;	384,0;	0,0;	0,0
648,3882446289062;	362,25;	0,0;	0,0
648,4501342773438;	373,25;	0,0;	0,0
648,5120849609375;	366,0;	0,0;	0,0
648,5740356445312;	382,75;	0,0;	0,0
648,6358642578125;	382,5;	0,0;	0,0
648,6978149414062;	379,5;	0,0;	0,0
648,7596435546875;	342,0;	0,0;	0,0
648,8214721679688;	361,5;	0,0;	0,0
648,8833618164062;	405,25;	0,0;	0,0
648,9451293945312;	390,25;	0,0;	0,0
649,0069580078125;	384,25;	0,0;	0,0
649,0687866210938;	358,5;	0,0;	0,0
649,1305541992188;	395,25;	0,0;	0,0
649,1923217773438;	389,0;	0,0;	0,0
649,2540893554688;	408,5;	0,0;	0,0
649,3157348632812;	491,5;	0,0;	0,0
649,3775024414062;	721,75;	0,0;	0,0
649,439208984375;	818,5;	0,0;	0,0
649,5009155273438;	771,5;	0,0;	0,0
649,5626220703125;	727,75;	0,0;	0,0
649,624267578125;	491,75;	0,0;	0,0
649,6858520507812;	417,25;	0,0;	0,0
649,7474975585938;	436,75;	0,0;	0,0
649,8091430664062;	400,25;	0,0;	0,0
649,8707275390625;	410,75;	0,0;	0,0
649,9322509765625;	396,25;	0,0;	0,0
649,9938354492188;	432,0;	0,0;	0,0
650,055419921875;	393,25;	0,0;	0,0
650,116943359375;	364,0;	0,0;	0,0
650,1784057617188;	357,75;	0,0;	0,0
650,239990234375;	377,0;	0,0;	0,0
650,3014526367188;	325,5;	0,0;	0,0
650,3629150390625;	344,0;	0,0;	0,0
650,4244384765625;	331,0;	0,0;	0,0
650,48583984375;	352,75;	0,0;	0,0
650,5472412109375;	353,5;	0,0;	0,0
650,608642578125;	358,75;	0,0;	0,0
650,6701049804688;	376,0;	0,0;	0,0
650,7314453125;	367,0;	0,0;	0,0
650,7928466796875;	363,75;	0,0;	0,0
650,8541870117188;	365,75;	0,0;	0,0
650,91552734375;	343,75;	0,0;	0,0
650,9768676757812;	355,5;	0,0;	0,0
651,0382080078125;	356,0;	0,0;	0,0
651,0994262695312;	355,75;	0,0;	0,0
651,1607666015625;	336,25;	0,0;	0,0
651,2219848632812;	346,25;	0,0;	0,0
651,2832641601562;	349,25;	0,0;	0,0
651,344482421875;	355,5;	0,0;	0,0
651,4056396484375;	333,25;	0,0;	0,0
651,4669189453125;	341,5;	0,0;	0,0
651,5281372070312;	336,0;	0,0;	0,0
651,5892333984375;	336,5;	0,0;	0,0
651,6504516601562;	323,25;	0,0;	0,0
651,7116088867188;	345,0;	0,0;	0,0
651,7726440429688;	332,75;	0,0;	0,0
651,8338623046875;	351,5;	0,0;	0,0
651,8949584960938;	353,25;	0,0;	0,0
651,9559936523438;	351,0;	0,0;	0,0
652,0170288085938;	350,0;	0,0;	0,0
652,078125;	332,25;	0,0;	0,0
652,13916015625;	334,75;	0,0;	0,0
652,2001953125;	377,0;	0,0;	0,0
652,2611083984375;	315,0;	0,0;	0,0
652,3221435546875;	354,5;	0,0;	0,0
652,3831176757812;	348,0;	0,0;	0,0
652,4440307617188;	336,75;	0,0;	0,0
652,5050048828125;	354,0;	0,0;	0,0
652,5659790039062;	375,5;	0,0;	0,0
652,6268920898438;	356,25;	0,0;	0,0
652,6878051757812;	364,0;	0,0;	0,0
652,7487182617188;	372,75;	0,0;	0,0
652,8095092773438;	369,0;	0,0;	0,0
652,8704223632812;	372,25;	0,0;	0,0
652,9312744140625;	345,0;	0,0;	0,0
652,9920654296875;	355,0;	0,0;	0,0
653,0528564453125;	360,75;	0,0;	0,0
653,1137084960938;	362,5;	0,0;	0,0
653,1744384765625;	377,0;	0,0;	0,0
653,2351684570312;	343,5;	0,0;	0,0
653,2958984375;	359,0;	0,0;	0,0
653,3566284179688;	357,25;	0,0;	0,0
653,4174194335938;	370,75;	0,0;	0,0
653,4780883789062;	365,0;	0,0;	0,0
653,5387573242188;	369,75;	0,0;	0,0
653,5994873046875;	362,5;	0,0;	0,0
653,6600341796875;	370,5;	0,0;	0,0
653,720703125;	345,75;	0,0;	0,0
653,7813720703125;	382,0;	0,0;	0,0
653,8419799804688;	369,25;	0,0;	0,0
653,9025268554688;	364,25;	0,0;	0,0
653,9631958007812;	369,25;	0,0;	0,0
654,0237426757812;	371,75;	0,0;	0,0
654,084228515625;	373,5;	0,0;	0,0
654,1448364257812;	368,5;	0,0;	0,0
654,205322265625;	382,5;	0,0;	0,0
654,2658081054688;	389,0;	0,0;	0,0
654,3262939453125;	376,75;	0,0;	0,0
654,3867797851562;	384,25;	0,0;	0,0
654,447265625;	377,25;	0,0;	0,0
654,5076904296875;	406,75;	0,0;	0,0
654,568115234375;	409,5;	0,0;	0,0
654,6285400390625;	491,25;	0,0;	0,0
654,6889038085938;	483,5;	0,0;	0,0
654,7493286132812;	399,5;	0,0;	0,0
654,8096923828125;	403,75;	0,0;	0,0
654,8699951171875;	392,25;	0,0;	0,0
654,9303588867188;	455,5;	0,0;	0,0
654,99072265625;	438,25;	0,0;	0,0
655,0509643554688;	432,75;	0,0;	0,0
655,111328125;	437,25;	0,0;	0,0
655,1715698242188;	456,0;	0,0;	0,0
655,2317504882812;	484,25;	0,0;	0,0
655,2920532226562;	464,5;	0,0;	0,0
655,3522338867188;	501,25;	0,0;	0,0
655,4124755859375;	509,0;	0,0;	0,0
655,4727172851562;	532,0;	0,0;	0,0
655,5328369140625;	551,5;	0,0;	0,0
655,593017578125;	577,25;	0,0;	0,0
655,6531982421875;	587,5;	0,0;	0,0
655,7133178710938;	578,0;	0,0;	0,0
655,7734375;	638,5;	0,0;	0,0
655,8335571289062;	609,75;	0,0;	0,0
655,8936157226562;	662,0;	0,0;	0,0
655,9537353515625;	723,75;	0,0;	0,0
656,0138549804688;	786,5;	0,0;	0,0
656,0738525390625;	820,75;	0,0;	0,0
656,1339111328125;	848,25;	0,0;	0,0
656,1939086914062;	913,0;	0,0;	0,0
656,2538452148438;	993,75;	0,0;	0,0
656,3139038085938;	985,25;	0,0;	0,0
656,373779296875;	959,25;	0,0;	0,0
656,4337768554688;	910,0;	0,0;	0,0
656,4937133789062;	899,5;	0,0;	0,0
656,5537109375;	845,25;	0,0;	0,0
656,613525390625;	830,0;	0,0;	0,0
656,6734619140625;	729,5;	0,0;	0,0
656,7333374023438;	665,5;	0,0;	0,0
656,793212890625;	681,25;	0,0;	0,0
656,8530883789062;	662,0;	0,0;	0,0
656,9129028320312;	634,5;	0,0;	0,0
656,97265625;	611,25;	0,0;	0,0
657,032470703125;	570,25;	0,0;	0,0
657,0922241210938;	569,0;	0,0;	0,0
657,1520385742188;	515,5;	0,0;	0,0
657,2118530273438;	487,75;	0,0;	0,0
657,2715454101562;	506,5;	0,0;	0,0
657,3312377929688;	479,5;	0,0;	0,0
657,3909912109375;	488,0;	0,0;	0,0
657,45068359375;	440,25;	0,0;	0,0
657,5103149414062;	484,25;	0,0;	0,0
657,5700073242188;	463,75;	0,0;	0,0
657,629638671875;	443,75;	0,0;	0,0
657,6892700195312;	410,5;	0,0;	0,0
657,7488403320312;	422,0;	0,0;	0,0
657,8085327148438;	408,0;	0,0;	0,0
657,8681030273438;	410,75;	0,0;	0,0
657,9276733398438;	401,75;	0,0;	0,0
657,9871826171875;	411,75;	0,0;	0,0
658,0467529296875;	450,0;	0,0;	0,0
658,106201171875;	380,5;	0,0;	0,0
658,165771484375;	375,25;	0,0;	0,0
658,2252807617188;	378,75;	0,0;	0,0
658,2847290039062;	363,75;	0,0;	0,0
658,3441772460938;	413,5;	0,0;	0,0
658,4036865234375;	404,25;	0,0;	0,0
658,4630737304688;	367,0;	0,0;	0,0
658,5225830078125;	392,25;	0,0;	0,0
658,5819702148438;	378,25;	0,0;	0,0
658,6412963867188;	380,75;	0,0;	0,0
658,70068359375;	361,0;	0,0;	0,0
658,760009765625;	371,0;	0,0;	0,0
658,8193359375;	364,0;	0,0;	0,0
658,8787231445312;	374,0;	0,0;	0,0
658,93798828125;	378,25;	0,0;	0,0
658,997314453125;	373,0;	0,0;	0,0
659,0565795898438;	363,0;	0,0;	0,0
659,1157836914062;	370,0;	0,0;	0,0
659,1751098632812;	357,5;	0,0;	0,0
659,234375;	410,0;	0,0;	0,0
659,2935180664062;	505,0;	0,0;	0,0
659,3527221679688;	455,0;	0,0;	0,0
659,4119262695312;	367,5;	0,0;	0,0
659,4710693359375;	377,25;	0,0;	0,0
659,5302124023438;	361,0;	0,0;	0,0
659,5894165039062;	366,5;	0,0;	0,0
659,6484985351562;	343,0;	0,0;	0,0
659,7076416015625;	357,25;	0,0;	0,0
659,7666625976562;	391,0;	0,0;	0,0
659,8257446289062;	361,0;	0,0;	0,0
659,8848266601562;	347,75;	0,0;	0,0
659,94384765625;	362,0;	0,0;	0,0
660,0029296875;	348,5;	0,0;	0,0
660,0619506835938;	353,5;	0,0;	0,0
660,1209106445312;	334,0;	0,0;	0,0
660,179931640625;	360,75;	0,0;	0,0
660,2389526367188;	356,5;	0,0;	0,0
660,2978515625;	359,75;	0,0;	0,0
660,3568115234375;	350,75;	0,0;	0,0
660,415771484375;	319,5;	0,0;	0,0
660,474609375;	328,25;	0,0;	0,0
660,5335693359375;	342,75;	0,0;	0,0
660,5924072265625;	338,75;	0,0;	0,0
660,6512451171875;	374,25;	0,0;	0,0
660,7101440429688;	360,25;	0,0;	0,0
660,7689208984375;	336,5;	0,0;	0,0
660,8277587890625;	363,75;	0,0;	0,0
660,8865966796875;	346,75;	0,0;	0,0
660,9453125;	383,5;	0,0;	0,0
661,004150390625;	344,5;	0,0;	0,0
661,0628662109375;	348,25;	0,0;	0,0
661,12158203125;	334,75;	0,0;	0,0
661,1802978515625;	312,25;	0,0;	0,0
661,2390747070312;	342,75;	0,0;	0,0
661,2976684570312;	292,25;	0,0;	0,0
661,3564453125;	345,5;	0,0;	0,0
661,4151000976562;	343,75;	0,0;	0,0
661,4737548828125;	348,5;	0,0;	0,0
661,5323486328125;	330,75;	0,0;	0,0
661,5909423828125;	360,0;	0,0;	0,0
661,6495361328125;	349,75;	0,0;	0,0
661,7081298828125;	336,75;	0,0;	0,0
661,7667236328125;	319,25;	0,0;	0,0
661,8252563476562;	327,75;	0,0;	0,0
661,8837890625;	328,5;	0,0;	0,0
661,9422607421875;	326,75;	0,0;	0,0
662,0008544921875;	331,25;	0,0;	0,0
662,0593872070312;	324,5;	0,0;	0,0
662,1177978515625;	351,25;	0,0;	0,0
662,17626953125;	337,25;	0,0;	0,0
662,2346801757812;	347,75;	0,0;	0,0
662,2930908203125;	318,5;	0,0;	0,0
662,3515625;	337,25;	0,0;	0,0
662,4099731445312;	306,5;	0,0;	0,0
662,4683227539062;	344,0;	0,0;	0,0
662,5267333984375;	329,25;	0,0;	0,0
662,5850830078125;	343,25;	0,0;	0,0
662,6433715820312;	336,0;	0,0;	0,0
662,7017211914062;	333,75;	0,0;	0,0
662,760009765625;	333,0;	0,0;	0,0
662,8182983398438;	331,5;	0,0;	0,0
662,8765869140625;	340,0;	0,0;	0,0
662,9348754882812;	337,5;	0,0;	0,0
662,9930419921875;	322,75;	0,0;	0,0
663,0513305664062;	312,5;	0,0;	0,0
663,1094970703125;	329,75;	0,0;	0,0
663,167724609375;	348,5;	0,0;	0,0
663,2259521484375;	330,25;	0,0;	0,0
663,2840576171875;	345,25;	0,0;	0,0
663,3421630859375;	322,75;	0,0;	0,0
663,400390625;	378,25;	0,0;	0,0
663,4584350585938;	352,75;	0,0;	0,0
663,5166015625;	338,5;	0,0;	0,0
663,5746459960938;	316,0;	0,0;	0,0
663,6327514648438;	341,75;	0,0;	0,0
663,6907348632812;	352,5;	0,0;	0,0
663,7488403320312;	329,25;	0,0;	0,0
663,806884765625;	303,75;	0,0;	0,0
663,8648681640625;	321,0;	0,0;	0,0
663,9229125976562;	342,75;	0,0;	0,0
663,9808349609375;	341,25;	0,0;	0,0
664,038818359375;	343,5;	0,0;	0,0
664,0966796875;	350,25;	0,0;	0,0
664,1546630859375;	336,0;	0,0;	0,0
664,2125854492188;	320,25;	0,0;	0,0
664,2705078125;	318,5;	0,0;	0,0
664,328369140625;	332,25;	0,0;	0,0
664,38623046875;	376,5;	0,0;	0,0
664,444091796875;	318,5;	0,0;	0,0
664,501953125;	359,0;	0,0;	0,0
664,5597534179688;	323,25;	0,0;	0,0
664,6175537109375;	335,5;	0,0;	0,0
664,6753540039062;	309,75;	0,0;	0,0
664,733154296875;	325,25;	0,0;	0,0
664,7908935546875;	347,5;	0,0;	0,0
664,8486938476562;	328,5;	0,0;	0,0
664,9064331054688;	346,75;	0,0;	0,0
664,964111328125;	341,75;	0,0;	0,0
665,0217895507812;	355,5;	0,0;	0,0
665,0794677734375;	336,75;	0,0;	0,0
665,1371459960938;	358,25;	0,0;	0,0
665,1947631835938;	355,25;	0,0;	0,0
665,2523803710938;	355,25;	0,0;	0,0
665,3099975585938;	356,25;	0,0;	0,0
665,36767578125;	347,25;	0,0;	0,0
665,4252319335938;	352,5;	0,0;	0,0
665,4827880859375;	346,0;	0,0;	0,0
665,5404052734375;	372,0;	0,0;	0,0
665,597900390625;	351,5;	0,0;	0,0
665,6554565429688;	368,0;	0,0;	0,0
665,7130126953125;	329,75;	0,0;	0,0
665,7704467773438;	356,5;	0,0;	0,0
665,8279418945312;	356,0;	0,0;	0,0
665,8854370117188;	343,75;	0,0;	0,0
665,9428100585938;	335,0;	0,0;	0,0
666,0003051757812;	376,75;	0,0;	0,0
666,0576782226562;	343,75;	0,0;	0,0
666,1150512695312;	360,5;	0,0;	0,0
666,1724853515625;	360,25;	0,0;	0,0
666,2298583984375;	339,5;	0,0;	0,0
666,2871704101562;	347,75;	0,0;	0,0
666,3446044921875;	380,75;	0,0;	0,0
666,4019165039062;	385,25;	0,0;	0,0
666,4591674804688;	326,0;	0,0;	0,0
666,5165405273438;	351,25;	0,0;	0,0
666,57373046875;	319,75;	0,0;	0,0
666,6310424804688;	324,75;	0,0;	0,0
666,6882934570312;	344,0;	0,0;	0,0
666,7454833984375;	318,5;	0,0;	0,0
666,802734375;	366,5;	0,0;	0,0
666,8599243164062;	364,75;	0,0;	0,0
666,9171142578125;	335,75;	0,0;	0,0
666,9742431640625;	316,0;	0,0;	0,0
667,0314331054688;	346,75;	0,0;	0,0
667,0885620117188;	339,75;	0,0;	0,0
667,1456909179688;	325,75;	0,0;	0,0
667,2026977539062;	321,25;	0,0;	0,0
667,2598876953125;	326,0;	0,0;	0,0
667,3169555664062;	345,75;	0,0;	0,0
667,3739624023438;	333,25;	0,0;	0,0
667,4310302734375;	350,25;	0,0;	0,0
667,488037109375;	342,5;	0,0;	0,0
667,5451049804688;	339,5;	0,0;	0,0
667,6021118164062;	323,25;	0,0;	0,0
667,6591186523438;	351,0;	0,0;	0,0
667,7160034179688;	378,0;	0,0;	0,0
667,77294921875;	500,25;	0,0;	0,0
667,8299560546875;	526,25;	0,0;	0,0
667,8867797851562;	350,0;	0,0;	0,0
667,9437255859375;	337,5;	0,0;	0,0
668,0006103515625;	358,5;	0,0;	0,0
668,0574951171875;	333,5;	0,0;	0,0
668,1143798828125;	320,0;	0,0;	0,0
668,171142578125;	335,5;	0,0;	0,0
668,2279663085938;	329,25;	0,0;	0,0
668,2847900390625;	343,75;	0,0;	0,0
668,341552734375;	309,75;	0,0;	0,0
668,3983764648438;	361,0;	0,0;	0,0
668,4552001953125;	314,25;	0,0;	0,0
668,5118408203125;	322,0;	0,0;	0,0
668,568603515625;	320,75;	0,0;	0,0
668,6253662109375;	331,75;	0,0;	0,0
668,6819458007812;	317,5;	0,0;	0,0
668,7387084960938;	315,5;	0,0;	0,0
668,79541015625;	315,0;	0,0;	0,0
668,8519897460938;	322,75;	0,0;	0,0
668,90869140625;	336,25;	0,0;	0,0
668,9652709960938;	339,25;	0,0;	0,0
669,0218505859375;	339,75;	0,0;	0,0
669,0784301757812;	319,5;	0,0;	0,0
669,1350708007812;	311,75;	0,0;	0,0
669,1915893554688;	316,0;	0,0;	0,0
669,2481689453125;	332,0;	0,0;	0,0
669,3046264648438;	355,25;	0,0;	0,0
669,3611450195312;	323,25;	0,0;	0,0
669,4176635742188;	333,75;	0,0;	0,0
669,47412109375;	316,0;	0,0;	0,0
669,5305786132812;	341,0;	0,0;	0,0
669,5870971679688;	354,5;	0,0;	0,0
669,6434326171875;	333,5;	0,0;	0,0
669,6998901367188;	341,25;	0,0;	0,0
669,7562866210938;	335,0;	0,0;	0,0
669,8126220703125;	320,0;	0,0;	0,0
669,8690795898438;	327,25;	0,0;	0,0
669,9254150390625;	330,25;	0,0;	0,0
669,981689453125;	341,5;	0,0;	0,0
670,0380249023438;	313,0;	0,0;	0,0
670,0943603515625;	358,5;	0,0;	0,0
670,150634765625;	341,0;	0,0;	0,0
670,2069091796875;	358,5;	0,0;	0,0
670,2631225585938;	341,75;	0,0;	0,0
670,3193969726562;	344,0;	0,0;	0,0
670,3756713867188;	383,25;	0,0;	0,0
670,4318237304688;	414,0;	0,0;	0,0
670,488037109375;	491,25;	0,0;	0,0
670,544189453125;	605,25;	0,0;	0,0
670,600341796875;	961,5;	0,0;	0,0
670,656494140625;	1746,0;	0,0;	0,0
670,7127075195312;	4289,5;	0,0;	0,0
670,768798828125;	9519,5;	0,0;	0,0
670,8248291015625;	7295,5;	0,0;	0,0
670,8809814453125;	1528,25;	0,0;	0,0
670,93701171875;	574,5;	0,0;	0,0
670,9930419921875;	425,25;	0,0;	0,0
671,0491333007812;	437,25;	0,0;	0,0
671,1051025390625;	407,75;	0,0;	0,0
671,1611328125;	375,5;	0,0;	0,0
671,2171020507812;	375,25;	0,0;	0,0
671,2730712890625;	352,5;	0,0;	0,0
671,3291015625;	367,0;	0,0;	0,0
671,3849487304688;	341,25;	0,0;	0,0
671,44091796875;	350,25;	0,0;	0,0
671,496826171875;	329,5;	0,0;	0,0
671,5526733398438;	365,75;	0,0;	0,0
671,6085815429688;	360,0;	0,0;	0,0
671,6644897460938;	350,0;	0,0;	0,0
671,7202758789062;	385,5;	0,0;	0,0
671,7761840820312;	416,75;	0,0;	0,0
671,8319702148438;	405,25;	0,0;	0,0
671,8876953125;	358,5;	0,0;	0,0
671,9435424804688;	325,0;	0,0;	0,0
671,9993286132812;	335,75;	0,0;	0,0
672,0550537109375;	341,25;	0,0;	0,0
672,1107788085938;	328,0;	0,0;	0,0
672,16650390625;	329,75;	0,0;	0,0
672,22216796875;	342,0;	0,0;	0,0
672,2778930664062;	339,75;	0,0;	0,0
672,3335571289062;	344,5;	0,0;	0,0
672,3892211914062;	327,0;	0,0;	0,0
672,4448852539062;	333,75;	0,0;	0,0
672,50048828125;	363,5;	0,0;	0,0
672,5560913085938;	312,25;	0,0;	0,0
672,6116943359375;	338,75;	0,0;	0,0
672,6672973632812;	322,0;	0,0;	0,0
672,7228393554688;	339,25;	0,0;	0,0
672,7783813476562;	323,25;	0,0;	0,0
672,8338623046875;	347,5;	0,0;	0,0
672,889404296875;	357,25;	0,0;	0,0
672,9449462890625;	344,5;	0,0;	0,0
673,0003662109375;	333,0;	0,0;	0,0
673,0558471679688;	342,5;	0,0;	0,0
673,111328125;	345,75;	0,0;	0,0
673,166748046875;	334,0;	0,0;	0,0
673,22216796875;	325,25;	0,0;	0,0
673,277587890625;	323,0;	0,0;	0,0
673,3329467773438;	314,75;	0,0;	0,0
673,3883666992188;	326,75;	0,0;	0,0
673,4436645507812;	342,5;	0,0;	0,0
673,4990234375;	335,0;	0,0;	0,0
673,5543823242188;	347,5;	0,0;	0,0
673,6096801757812;	330,75;	0,0;	0,0
673,6649780273438;	334,75;	0,0;	0,0
673,72021484375;	344,75;	0,0;	0,0
673,7755126953125;	328,5;	0,0;	0,0
673,8307495117188;	343,75;	0,0;	0,0
673,885986328125;	341,25;	0,0;	0,0
673,9412231445312;	319,75;	0,0;	0,0
673,9963989257812;	329,25;	0,0;	0,0
674,051513671875;	325,25;	0,0;	0,0
674,106689453125;	354,75;	0,0;	0,0
674,161865234375;	336,0;	0,0;	0,0
674,2169799804688;	316,25;	0,0;	0,0
674,2721557617188;	318,0;	0,0;	0,0
674,3272705078125;	341,5;	0,0;	0,0
674,38232421875;	347,75;	0,0;	0,0
674,4373779296875;	317,0;	0,0;	0,0
674,4924926757812;	319,0;	0,0;	0,0
674,5474853515625;	318,0;	0,0;	0,0
674,6025390625;	319,25;	0,0;	0,0
674,6575317382812;	321,25;	0,0;	0,0
674,7124633789062;	342,0;	0,0;	0,0
674,7674560546875;	316,5;	0,0;	0,0
674,8224487304688;	342,5;	0,0;	0,0
674,8773803710938;	322,0;	0,0;	0,0
674,9323120117188;	339,5;	0,0;	0,0
674,9871826171875;	348,5;	0,0;	0,0
675,0420532226562;	349,75;	0,0;	0,0
675,0969848632812;	337,25;	0,0;	0,0
675,15185546875;	356,5;	0,0;	0,0
675,2066650390625;	333,25;	0,0;	0,0
675,2615356445312;	364,75;	0,0;	0,0
675,3162841796875;	321,75;	0,0;	0,0
675,3711547851562;	338,5;	0,0;	0,0
675,4259033203125;	323,75;	0,0;	0,0
675,4806518554688;	333,0;	0,0;	0,0
675,535400390625;	330,25;	0,0;	0,0
675,5902099609375;	325,25;	0,0;	0,0
675,6448364257812;	332,75;	0,0;	0,0
675,6996459960938;	320,25;	0,0;	0,0
675,7543334960938;	322,0;	0,0;	0,0
675,8088989257812;	335,5;	0,0;	0,0
675,8636474609375;	331,5;	0,0;	0,0
675,9182739257812;	306,75;	0,0;	0,0
675,9728393554688;	311,0;	0,0;	0,0
676,0274658203125;	308,0;	0,0;	0,0
676,0820922851562;	313,75;	0,0;	0,0
676,1366577148438;	327,75;	0,0;	0,0
676,1912231445312;	319,75;	0,0;	0,0
676,2457275390625;	299,0;	0,0;	0,0
676,30029296875;	299,0;	0,0;	0,0
676,3547973632812;	336,75;	0,0;	0,0
676,4092407226562;	344,25;	0,0;	0,0
676,4637451171875;	316,25;	0,0;	0,0
676,5182495117188;	302,5;	0,0;	0,0
676,5726928710938;	324,0;	0,0;	0,0
676,6271362304688;	309,75;	0,0;	0,0
676,6815795898438;	292,0;	0,0;	0,0
676,7359619140625;	307,0;	0,0;	0,0
676,790283203125;	301,25;	0,0;	0,0
676,8447265625;	341,0;	0,0;	0,0
676,8990478515625;	314,75;	0,0;	0,0
676,9534301757812;	317,5;	0,0;	0,0
677,0076904296875;	329,5;	0,0;	0,0
677,06201171875;	295,0;	0,0;	0,0
677,1163330078125;	303,0;	0,0;	0,0
677,1705322265625;	339,25;	0,0;	0,0
677,2247924804688;	289,25;	0,0;	0,0
677,279052734375;	293,75;	0,0;	0,0
677,333251953125;	347,0;	0,0;	0,0
677,3875122070312;	305,0;	0,0;	0,0
677,4417114257812;	329,0;	0,0;	0,0
677,4957885742188;	309,0;	0,0;	0,0
677,550048828125;	327,75;	0,0;	0,0
677,6041870117188;	305,5;	0,0;	0,0
677,6583251953125;	307,5;	0,0;	0,0
677,71240234375;	315,5;	0,0;	0,0
677,7665405273438;	313,5;	0,0;	0,0
677,8206176757812;	346,25;	0,0;	0,0
677,8746948242188;	302,25;	0,0;	0,0
677,9287109375;	340,75;	0,0;	0,0
677,9827270507812;	299,25;	0,0;	0,0
678,0367431640625;	322,75;	0,0;	0,0
678,0906982421875;	318,0;	0,0;	0,0
678,144775390625;	310,0;	0,0;	0,0
678,19873046875;	319,25;	0,0;	0,0
678,2526245117188;	295,0;	0,0;	0,0
678,3065795898438;	314,25;	0,0;	0,0
678,3605346679688;	337,0;	0,0;	0,0
678,4144287109375;	332,5;	0,0;	0,0
678,4683227539062;	328,0;	0,0;	0,0
678,5221557617188;	309,5;	0,0;	0,0
678,5759887695312;	320,5;	0,0;	0,0
678,6298828125;	294,0;	0,0;	0,0
678,6837158203125;	318,75;	0,0;	0,0
678,7374877929688;	311,0;	0,0;	0,0
678,791259765625;	320,25;	0,0;	0,0
678,8450927734375;	311,25;	0,0;	0,0
678,8988037109375;	305,5;	0,0;	0,0
678,9525756835938;	292,75;	0,0;	0,0
679,0062866210938;	313,0;	0,0;	0,0
679,0599975585938;	304,0;	0,0;	0,0
679,1137084960938;	327,5;	0,0;	0,0
679,1674194335938;	297,75;	0,0;	0,0
679,2210083007812;	323,25;	0,0;	0,0
679,2747192382812;	313,0;	0,0;	0,0
679,3283081054688;	342,5;	0,0;	0,0
679,3819580078125;	319,25;	0,0;	0,0
679,435546875;	324,75;	0,0;	0,0
679,4890747070312;	306,5;	0,0;	0,0
679,542724609375;	335,5;	0,0;	0,0
679,5962524414062;	333,25;	0,0;	0,0
679,6497192382812;	297,5;	0,0;	0,0
679,7032470703125;	295,25;	0,0;	0,0
679,7568359375;	303,75;	0,0;	0,0
679,810302734375;	296,75;	0,0;	0,0
679,86376953125;	322,5;	0,0;	0,0
679,9171752929688;	301,25;	0,0;	0,0
679,9706420898438;	268,5;	0,0;	0,0
680,0240478515625;	290,25;	0,0;	0,0
680,0775146484375;	299,25;	0,0;	0,0
680,130859375;	317,25;	0,0;	0,0
680,1842651367188;	326,5;	0,0;	0,0
680,237548828125;	301,25;	0,0;	0,0
680,2909545898438;	278,5;	0,0;	0,0
680,3442993164062;	308,0;	0,0;	0,0
680,3975830078125;	336,5;	0,0;	0,0
680,4508666992188;	312,25;	0,0;	0,0
680,504150390625;	314,5;	0,0;	0,0
680,557373046875;	303,75;	0,0;	0,0
680,6106567382812;	287,0;	0,0;	0,0
680,6639404296875;	283,75;	0,0;	0,0
680,717041015625;	298,0;	0,0;	0,0
680,7703247070312;	307,25;	0,0;	0,0
680,8234252929688;	323,75;	0,0;	0,0
680,8766479492188;	334,0;	0,0;	0,0
680,9297485351562;	300,25;	0,0;	0,0
680,9829711914062;	315,5;	0,0;	0,0
681,0360107421875;	318,0;	0,0;	0,0
681,0891723632812;	316,25;	0,0;	0,0
681,1421508789062;	326,5;	0,0;	0,0
681,1953125;	320,0;	0,0;	0,0
681,2483520507812;	314,75;	0,0;	0,0
681,3013305664062;	314,0;	0,0;	0,0
681,3544311523438;	341,0;	0,0;	0,0
681,4074096679688;	297,75;	0,0;	0,0
681,4603271484375;	307,0;	0,0;	0,0
681,5133056640625;	308,25;	0,0;	0,0
681,5662841796875;	328,0;	0,0;	0,0
681,6192626953125;	309,0;	0,0;	0,0
681,6721801757812;	306,25;	0,0;	0,0
681,72509765625;	295,5;	0,0;	0,0
681,7779541015625;	322,5;	0,0;	0,0
681,8308715820312;	306,5;	0,0;	0,0
681,8837280273438;	299,0;	0,0;	0,0
681,9365234375;	316,5;	0,0;	0,0
681,9893798828125;	328,75;	0,0;	0,0
682,0421142578125;	315,75;	0,0;	0,0
682,0949096679688;	325,75;	0,0;	0,0
682,1477661132812;	327,5;	0,0;	0,0
682,2005004882812;	333,75;	0,0;	0,0
682,2532958984375;	313,75;	0,0;	0,0
682,3059692382812;	295,75;	0,0;	0,0
682,358642578125;	316,75;	0,0;	0,0
682,411376953125;	317,25;	0,0;	0,0
682,4640502929688;	281,25;	0,0;	0,0
682,5167236328125;	307,75;	0,0;	0,0
682,5693359375;	323,75;	0,0;	0,0
682,6220092773438;	272,75;	0,0;	0,0
682,674560546875;	288,5;	0,0;	0,0
682,7272338867188;	325,0;	0,0;	0,0
682,77978515625;	302,75;	0,0;	0,0
682,8323974609375;	339,75;	0,0;	0,0
682,8849487304688;	318,25;	0,0;	0,0
682,9373779296875;	314,25;	0,0;	0,0
682,989990234375;	315,0;	0,0;	0,0
683,04248046875;	292,25;	0,0;	0,0
683,0949096679688;	312,75;	0,0;	0,0
683,1473999023438;	315,5;	0,0;	0,0
683,1998901367188;	319,0;	0,0;	0,0
683,2523193359375;	290,5;	0,0;	0,0
683,3047485351562;	289,5;	0,0;	0,0
683,357177734375;	300,75;	0,0;	0,0
683,4094848632812;	299,75;	0,0;	0,0
683,4619140625;	311,5;	0,0;	0,0
683,5142822265625;	293,75;	0,0;	0,0
683,5665893554688;	287,25;	0,0;	0,0
683,6189575195312;	314,25;	0,0;	0,0
683,6712646484375;	294,75;	0,0;	0,0
683,7235107421875;	295,25;	0,0;	0,0
683,7757568359375;	313,25;	0,0;	0,0
683,8280029296875;	327,5;	0,0;	0,0
683,8803100585938;	341,0;	0,0;	0,0
683,9325561523438;	309,75;	0,0;	0,0
683,9846801757812;	317,5;	0,0;	0,0
684,0369262695312;	317,5;	0,0;	0,0
684,0891723632812;	319,25;	0,0;	0,0
684,1412353515625;	338,0;	0,0;	0,0
684,1934204101562;	324,75;	0,0;	0,0
684,2455444335938;	336,25;	0,0;	0,0
684,2976684570312;	304,25;	0,0;	0,0
684,3497314453125;	326,5;	0,0;	0,0
684,40185546875;	333,5;	0,0;	0,0
684,453857421875;	312,75;	0,0;	0,0
684,5059204101562;	295,0;	0,0;	0,0
684,5579833984375;	325,5;	0,0;	0,0
684,6099853515625;	312,75;	0,0;	0,0
684,6619873046875;	297,75;	0,0;	0,0
684,7139892578125;	289,25;	0,0;	0,0
684,7659301757812;	286,0;	0,0;	0,0
684,8179321289062;	317,75;	0,0;	0,0
684,869873046875;	320,75;	0,0;	0,0
684,9216918945312;	321,75;	0,0;	0,0
684,9736328125;	286,5;	0,0;	0,0
685,0255126953125;	310,5;	0,0;	0,0
685,077392578125;	332,25;	0,0;	0,0
685,1292724609375;	298,75;	0,0;	0,0
685,1810302734375;	282,25;	0,0;	0,0
685,23291015625;	300,25;	0,0;	0,0
685,2847290039062;	290,25;	0,0;	0,0
685,3364868164062;	311,5;	0,0;	0,0
685,3882446289062;	319,75;	0,0;	0,0
685,4400024414062;	332,5;	0,0;	0,0
685,4917602539062;	350,5;	0,0;	0,0
685,5435180664062;	320,0;	0,0;	0,0
685,5951538085938;	335,25;	0,0;	0,0
685,6468505859375;	300,25;	0,0;	0,0
685,6985473632812;	303,75;	0,0;	0,0
685,750244140625;	301,75;	0,0;	0,0
685,8018798828125;	308,0;	0,0;	0,0
685,8534545898438;	319,0;	0,0;	0,0
685,905029296875;	310,0;	0,0;	0,0
685,9566650390625;	318,75;	0,0;	0,0
686,0082397460938;	310,25;	0,0;	0,0
686,059814453125;	297,0;	0,0;	0,0
686,111328125;	301,5;	0,0;	0,0
686,162841796875;	343,5;	0,0;	0,0
686,21435546875;	323,25;	0,0;	0,0
686,265869140625;	308,5;	0,0;	0,0
686,3173828125;	322,0;	0,0;	0,0
686,3687744140625;	293,75;	0,0;	0,0
686,4202270507812;	315,25;	0,0;	0,0
686,4716186523438;	321,0;	0,0;	0,0
686,5230712890625;	322,25;	0,0;	0,0
686,574462890625;	288,0;	0,0;	0,0
686,6258544921875;	305,75;	0,0;	0,0
686,6771850585938;	298,0;	0,0;	0,0
686,7285766601562;	326,0;	0,0;	0,0
686,7799072265625;	299,0;	0,0;	0,0
686,8312377929688;	313,0;	0,0;	0,0
686,882568359375;	306,25;	0,0;	0,0
686,9337768554688;	306,5;	0,0;	0,0
686,9850463867188;	319,0;	0,0;	0,0
687,0363159179688;	329,0;	0,0;	0,0
687,0875244140625;	293,0;	0,0;	0,0
687,1387329101562;	324,5;	0,0;	0,0
687,1900024414062;	323,75;	0,0;	0,0
687,2410888671875;	302,5;	0,0;	0,0
687,2922973632812;	287,0;	0,0;	0,0
687,3434448242188;	306,5;	0,0;	0,0
687,3945922851562;	294,75;	0,0;	0,0
687,4457397460938;	325,25;	0,0;	0,0
687,4968872070312;	306,25;	0,0;	0,0
687,5479125976562;	298,0;	0,0;	0,0
687,5989379882812;	294,75;	0,0;	0,0
687,6500244140625;	306,25;	0,0;	0,0
687,7010498046875;	288,5;	0,0;	0,0
687,7520751953125;	321,0;	0,0;	0,0
687,8030395507812;	314,5;	0,0;	0,0
687,8540649414062;	291,75;	0,0;	0,0
687,905029296875;	319,0;	0,0;	0,0
687,9559936523438;	304,75;	0,0;	0,0
688,0069580078125;	313,5;	0,0;	0,0
688,0579223632812;	289,25;	0,0;	0,0
688,1087646484375;	324,75;	0,0;	0,0
688,1596069335938;	295,5;	0,0;	0,0
688,2105102539062;	304,25;	0,0;	0,0
688,2613525390625;	290,25;	0,0;	0,0
688,3121948242188;	294,0;	0,0;	0,0
688,3630981445312;	317,25;	0,0;	0,0
688,4138793945312;	294,25;	0,0;	0,0
688,464599609375;	301,5;	0,0;	0,0
688,515380859375;	300,5;	0,0;	0,0
688,566162109375;	315,5;	0,0;	0,0
688,6168823242188;	294,0;	0,0;	0,0
688,6676025390625;	324,0;	0,0;	0,0
688,7183227539062;	296,25;	0,0;	0,0
688,76904296875;	290,75;	0,0;	0,0
688,8196411132812;	309,25;	0,0;	0,0
688,870361328125;	292,0;	0,0;	0,0
688,9210205078125;	323,0;	0,0;	0,0
688,9716186523438;	307,5;	0,0;	0,0
689,0222778320312;	295,75;	0,0;	0,0
689,0728149414062;	308,5;	0,0;	0,0
689,1234130859375;	331,5;	0,0;	0,0
689,1740112304688;	321,5;	0,0;	0,0
689,2245483398438;	310,75;	0,0;	0,0
689,2750244140625;	321,75;	0,0;	0,0
689,3255615234375;	318,75;	0,0;	0,0
689,3759765625;	315,25;	0,0;	0,0
689,426513671875;	301,25;	0,0;	0,0
689,4769897460938;	295,75;	0,0;	0,0
689,5274658203125;	313,75;	0,0;	0,0
689,5778198242188;	291,25;	0,0;	0,0
689,6282958984375;	306,0;	0,0;	0,0
689,6786499023438;	301,0;	0,0;	0,0
689,7290649414062;	291,25;	0,0;	0,0
689,7794799804688;	329,25;	0,0;	0,0
689,8297119140625;	300,0;	0,0;	0,0
689,8800659179688;	306,0;	0,0;	0,0
689,930419921875;	307,5;	0,0;	0,0
689,9806518554688;	308,5;	0,0;	0,0
690,031005859375;	308,0;	0,0;	0,0
690,081298828125;	312,0;	0,0;	0,0
690,1314697265625;	301,0;	0,0;	0,0
690,1817626953125;	323,25;	0,0;	0,0
690,23193359375;	311,75;	0,0;	0,0
690,2821655273438;	300,5;	0,0;	0,0
690,3323364257812;	304,5;	0,0;	0,0
690,3825073242188;	319,5;	0,0;	0,0
690,4326782226562;	321,5;	0,0;	0,0
690,4827880859375;	333,25;	0,0;	0,0
690,5328369140625;	304,25;	0,0;	0,0
690,5829467773438;	307,75;	0,0;	0,0
690,6331176757812;	312,25;	0,0;	0,0
690,6831665039062;	316,75;	0,0;	0,0
690,7332153320312;	301,0;	0,0;	0,0
690,7832641601562;	323,0;	0,0;	0,0
690,833251953125;	286,75;	0,0;	0,0
690,8832397460938;	316,5;	0,0;	0,0
690,9332885742188;	311,75;	0,0;	0,0
690,9832153320312;	336,5;	0,0;	0,0
691,033203125;	396,0;	0,0;	0,0
691,0830078125;	453,25;	0,0;	0,0
691,1329956054688;	395,75;	0,0;	0,0
691,1829223632812;	352,25;	0,0;	0,0
691,2328491210938;	311,25;	0,0;	0,0
691,2826538085938;	307,5;	0,0;	0,0
691,33251953125;	297,0;	0,0;	0,0
691,38232421875;	290,25;	0,0;	0,0
691,43212890625;	305,0;	0,0;	0,0
691,4819946289062;	318,5;	0,0;	0,0
691,53173828125;	289,75;	0,0;	0,0
691,58154296875;	302,0;	0,0;	0,0
691,6312866210938;	309,0;	0,0;	0,0
691,6810302734375;	323,5;	0,0;	0,0
691,730712890625;	305,75;	0,0;	0,0
691,7804565429688;	293,25;	0,0;	0,0
691,8301391601562;	328,0;	0,0;	0,0
691,8798217773438;	312,5;	0,0;	0,0
691,929443359375;	311,75;	0,0;	0,0
691,9790649414062;	302,25;	0,0;	0,0
692,0286865234375;	318,0;	0,0;	0,0
692,0783081054688;	295,5;	0,0;	0,0
692,1278686523438;	286,25;	0,0;	0,0
692,177490234375;	282,25;	0,0;	0,0
692,2269897460938;	319,5;	0,0;	0,0
692,2765502929688;	302,5;	0,0;	0,0
692,3261108398438;	285,75;	0,0;	0,0
692,3755493164062;	302,5;	0,0;	0,0
692,4251098632812;	299,5;	0,0;	0,0
692,474609375;	305,75;	0,0;	0,0
692,5240478515625;	291,25;	0,0;	0,0
692,5734252929688;	301,25;	0,0;	0,0
692,6229248046875;	314,25;	0,0;	0,0
692,6723022460938;	304,75;	0,0;	0,0
692,7216796875;	300,25;	0,0;	0,0
692,7711181640625;	299,5;	0,0;	0,0
692,8203735351562;	293,0;	0,0;	0,0
692,8697509765625;	282,5;	0,0;	0,0
692,9190673828125;	294,25;	0,0;	0,0
692,9683837890625;	297,5;	0,0;	0,0
693,0177001953125;	293,25;	0,0;	0,0
693,06689453125;	304,5;	0,0;	0,0
693,1162109375;	303,25;	0,0;	0,0
693,1654663085938;	314,5;	0,0;	0,0
693,214599609375;	292,75;	0,0;	0,0
693,2638549804688;	345,5;	0,0;	0,0
693,3130493164062;	305,75;	0,0;	0,0
693,3622436523438;	296,0;	0,0;	0,0
693,4114379882812;	322,25;	0,0;	0,0
693,4605712890625;	282,75;	0,0;	0,0
693,5096435546875;	315,75;	0,0;	0,0
693,5587768554688;	286,75;	0,0;	0,0
693,6078491210938;	314,0;	0,0;	0,0
693,6568603515625;	362,0;	0,0;	0,0
693,7059936523438;	339,25;	0,0;	0,0
693,7550659179688;	392,25;	0,0;	0,0
693,8040771484375;	464,75;	0,0;	0,0
693,85302734375;	575,0;	0,0;	0,0
693,9020385742188;	477,0;	0,0;	0,0
693,9510498046875;	346,0;	0,0;	0,0
694,0;	352,0;	0,0;	0,0
694,0488891601562;	296,25;	0,0;	0,0
694,0978393554688;	304,0;	0,0;	0,0
694,1467895507812;	303,0;	0,0;	0,0
694,1956176757812;	300,0;	0,0;	0,0
694,2445068359375;	304,0;	0,0;	0,0
694,2933959960938;	289,5;	0,0;	0,0
694,3421630859375;	303,0;	0,0;	0,0
694,3910522460938;	309,5;	0,0;	0,0
694,4398803710938;	308,0;	0,0;	0,0
694,4886474609375;	332,0;	0,0;	0,0
694,5374145507812;	312,75;	0,0;	0,0
694,5862426757812;	284,0;	0,0;	0,0
694,6349487304688;	291,25;	0,0;	0,0
694,6836547851562;	312,0;	0,0;	0,0
694,7323608398438;	317,0;	0,0;	0,0
694,7810668945312;	311,25;	0,0;	0,0
694,8297729492188;	281,5;	0,0;	0,0
694,8784790039062;	323,0;	0,0;	0,0
694,927001953125;	299,5;	0,0;	0,0
694,9756469726562;	287,5;	0,0;	0,0
695,0242309570312;	330,0;	0,0;	0,0
695,0728759765625;	303,75;	0,0;	0,0
695,1213989257812;	313,5;	0,0;	0,0
695,1699829101562;	293,75;	0,0;	0,0
695,2185668945312;	318,75;	0,0;	0,0
695,26708984375;	306,5;	0,0;	0,0
695,3155517578125;	315,75;	0,0;	0,0
695,3640747070312;	293,25;	0,0;	0,0
695,41259765625;	307,75;	0,0;	0,0
695,4609985351562;	308,25;	0,0;	0,0
695,5094604492188;	302,25;	0,0;	0,0
695,557861328125;	311,75;	0,0;	0,0
695,6062622070312;	284,5;	0,0;	0,0
695,6547241210938;	282,75;	0,0;	0,0
695,7030639648438;	300,5;	0,0;	0,0
695,7514038085938;	302,0;	0,0;	0,0
695,7997436523438;	283,75;	0,0;	0,0
695,8480224609375;	283,75;	0,0;	0,0
695,8963623046875;	292,25;	0,0;	0,0
695,9447021484375;	289,75;	0,0;	0,0
695,992919921875;	309,0;	0,0;	0,0
696,0411987304688;	308,75;	0,0;	0,0
696,0894775390625;	287,75;	0,0;	0,0
696,1376342773438;	284,5;	0,0;	0,0
696,1859130859375;	303,75;	0,0;	0,0
696,234130859375;	284,0;	0,0;	0,0
696,2822265625;	288,75;	0,0;	0,0
696,3304443359375;	308,75;	0,0;	0,0
696,3785400390625;	300,75;	0,0;	0,0
696,4266357421875;	302,25;	0,0;	0,0
696,4747924804688;	283,5;	0,0;	0,0
696,5228881835938;	306,25;	0,0;	0,0
696,5709838867188;	316,75;	0,0;	0,0
696,6190185546875;	308,75;	0,0;	0,0
696,6670532226562;	307,0;	0,0;	0,0
696,715087890625;	294,25;	0,0;	0,0
696,7631225585938;	311,5;	0,0;	0,0
696,8110961914062;	312,25;	0,0;	0,0
696,8590698242188;	304,75;	0,0;	0,0
696,9070434570312;	293,5;	0,0;	0,0
696,9548950195312;	284,5;	0,0;	0,0
697,0029296875;	283,75;	0,0;	0,0
697,0508422851562;	310,0;	0,0;	0,0
697,0986938476562;	276,25;	0,0;	0,0
697,1466064453125;	303,75;	0,0;	0,0
697,1943969726562;	295,25;	0,0;	0,0
697,2422485351562;	298,75;	0,0;	0,0
697,2901000976562;	307,0;	0,0;	0,0
697,337890625;	299,5;	0,0;	0,0
697,3856811523438;	292,75;	0,0;	0,0
697,4334716796875;	284,0;	0,0;	0,0
697,481201171875;	299,25;	0,0;	0,0
697,5289306640625;	329,5;	0,0;	0,0
697,5767211914062;	265,25;	0,0;	0,0
697,6243896484375;	322,25;	0,0;	0,0
697,6720581054688;	282,5;	0,0;	0,0
697,7197875976562;	294,5;	0,0;	0,0
697,7673950195312;	300,25;	0,0;	0,0
697,8150634765625;	325,5;	0,0;	0,0
697,8626708984375;	342,5;	0,0;	0,0
697,9102172851562;	269,25;	0,0;	0,0
697,9578857421875;	296,75;	0,0;	0,0
698,0054931640625;	298,0;	0,0;	0,0
698,052978515625;	311,75;	0,0;	0,0
698,1005249023438;	293,25;	0,0;	0,0
698,1481323242188;	290,0;	0,0;	0,0
698,195556640625;	295,75;	0,0;	0,0
698,2431030273438;	282,5;	0,0;	0,0
698,29052734375;	292,25;	0,0;	0,0
698,3380126953125;	269,0;	0,0;	0,0
698,3854370117188;	289,0;	0,0;	0,0
698,432861328125;	288,75;	0,0;	0,0
698,480224609375;	287,75;	0,0;	0,0
698,5276489257812;	299,0;	0,0;	0,0
698,5750122070312;	306,5;	0,0;	0,0
698,6223754882812;	304,5;	0,0;	0,0
698,669677734375;	294,75;	0,0;	0,0
698,7169799804688;	277,75;	0,0;	0,0
698,7643432617188;	296,0;	0,0;	0,0
698,8116455078125;	288,75;	0,0;	0,0
698,85888671875;	288,75;	0,0;	0,0
698,9061279296875;	294,75;	0,0;	0,0
698,9534301757812;	270,75;	0,0;	0,0
699,0006103515625;	287,5;	0,0;	0,0
699,0477905273438;	288,25;	0,0;	0,0
699,094970703125;	287,25;	0,0;	0,0
699,1421508789062;	276,25;	0,0;	0,0
699,1893310546875;	275,75;	0,0;	0,0
699,2363891601562;	277,75;	0,0;	0,0
699,2835693359375;	295,0;	0,0;	0,0
699,3306884765625;	278,5;	0,0;	0,0
699,3777465820312;	300,0;	0,0;	0,0
699,4248657226562;	283,25;	0,0;	0,0
699,471923828125;	292,25;	0,0;	0,0
699,5189208984375;	279,0;	0,0;	0,0
699,5659790039062;	282,75;	0,0;	0,0
699,6129150390625;	311,5;	0,0;	0,0
699,659912109375;	272,5;	0,0;	0,0
699,7069091796875;	287,0;	0,0;	0,0
699,75390625;	273,5;	0,0;	0,0
699,80078125;	304,25;	0,0;	0,0
699,8477172851562;	299,75;	0,0;	0,0
699,8945922851562;	315,75;	0,0;	0,0
699,9414672851562;	315,0;	0,0;	0,0
699,9884033203125;	312,75;	0,0;	0,0
700,0352172851562;	306,5;	0,0;	0,0
700,0820922851562;	297,25;	0,0;	0,0
700,12890625;	287,25;	0,0;	0,0
700,1755981445312;	278,0;	0,0;	0,0
700,2224731445312;	272,25;	0,0;	0,0
700,2692260742188;	283,25;	0,0;	0,0
700,31591796875;	304,5;	0,0;	0,0
700,3626708984375;	288,5;	0,0;	0,0
700,409423828125;	291,0;	0,0;	0,0
700,4560546875;	282,5;	0,0;	0,0
700,5027465820312;	284,0;	0,0;	0,0
700,5494384765625;	298,75;	0,0;	0,0
700,5960693359375;	293,25;	0,0;	0,0
700,6427001953125;	299,0;	0,0;	0,0
700,6893310546875;	292,25;	0,0;	0,0
700,7359619140625;	287,0;	0,0;	0,0
700,7825317382812;	301,75;	0,0;	0,0
700,8291015625;	276,0;	0,0;	0,0
700,8756103515625;	283,0;	0,0;	0,0
700,9221801757812;	286,5;	0,0;	0,0
700,9686279296875;	293,5;	0,0;	0,0
701,0151977539062;	301,75;	0,0;	0,0
701,0617065429688;	318,5;	0,0;	0,0
701,1080932617188;	282,5;	0,0;	0,0
701,154541015625;	284,25;	0,0;	0,0
701,2010498046875;	283,25;	0,0;	0,0
701,2473754882812;	300,75;	0,0;	0,0
701,2937622070312;	280,75;	0,0;	0,0
701,3402099609375;	290,25;	0,0;	0,0
701,3865356445312;	287,0;	0,0;	0,0
701,432861328125;	288,5;	0,0;	0,0
701,4791870117188;	298,75;	0,0;	0,0
701,5255126953125;	290,25;	0,0;	0,0
701,5718383789062;	296,0;	0,0;	0,0
701,6181030273438;	296,0;	0,0;	0,0
701,664306640625;	307,75;	0,0;	0,0
701,7106323242188;	282,25;	0,0;	0,0
701,7567749023438;	286,5;	0,0;	0,0
701,8030395507812;	276,0;	0,0;	0,0
701,8492431640625;	286,5;	0,0;	0,0
701,8953857421875;	309,75;	0,0;	0,0
701,9415283203125;	283,5;	0,0;	0,0
701,9877319335938;	289,25;	0,0;	0,0
702,0338134765625;	286,0;	0,0;	0,0
702,0799560546875;	303,75;	0,0;	0,0
702,1260375976562;	287,75;	0,0;	0,0
702,172119140625;	330,25;	0,0;	0,0
702,2181396484375;	303,0;	0,0;	0,0
702,2642211914062;	310,5;	0,0;	0,0
702,3101806640625;	286,25;	0,0;	0,0
702,356201171875;	322,75;	0,0;	0,0
702,4022216796875;	308,0;	0,0;	0,0
702,4481811523438;	271,5;	0,0;	0,0
702,494140625;	309,25;	0,0;	0,0
702,5400390625;	279,5;	0,0;	0,0
702,5859985351562;	272,25;	0,0;	0,0
702,6318969726562;	299,0;	0,0;	0,0
702,6777954101562;	286,25;	0,0;	0,0
702,7236938476562;	265,5;	0,0;	0,0
702,76953125;	285,25;	0,0;	0,0
702,8153686523438;	294,0;	0,0;	0,0
702,8611450195312;	299,0;	0,0;	0,0
702,906982421875;	309,5;	0,0;	0,0
702,9527587890625;	268,25;	0,0;	0,0
702,99853515625;	286,0;	0,0;	0,0
703,0443115234375;	282,0;	0,0;	0,0
703,0900268554688;	275,5;	0,0;	0,0
703,1357421875;	290,25;	0,0;	0,0
703,1814575195312;	273,5;	0,0;	0,0
703,2271118164062;	273,0;	0,0;	0,0
703,2728271484375;	284,5;	0,0;	0,0
703,3184204101562;	311,75;	0,0;	0,0
703,364013671875;	267,0;	0,0;	0,0
703,4097290039062;	286,25;	0,0;	0,0
703,4552612304688;	267,0;	0,0;	0,0
703,5008544921875;	275,25;	0,0;	0,0
703,5464477539062;	292,25;	0,0;	0,0
703,5919189453125;	293,0;	0,0;	0,0
703,6375122070312;	291,5;	0,0;	0,0
703,6830444335938;	279,0;	0,0;	0,0
703,728515625;	287,0;	0,0;	0,0
703,7739868164062;	308,5;	0,0;	0,0
703,8195190429688;	314,5;	0,0;	0,0
703,8649291992188;	313,25;	0,0;	0,0
703,910400390625;	291,0;	0,0;	0,0
703,9557495117188;	307,5;	0,0;	0,0
704,0011596679688;	280,75;	0,0;	0,0
704,0465698242188;	240,25;	0,0;	0,0
704,0918579101562;	268,0;	0,0;	0,0
704,1372680664062;	287,5;	0,0;	0,0
704,1825561523438;	278,25;	0,0;	0,0
704,2278442382812;	270,25;	0,0;	0,0
704,2731323242188;	304,0;	0,0;	0,0
704,3184204101562;	292,5;	0,0;	0,0
704,3637084960938;	291,75;	0,0;	0,0
704,408935546875;	308,0;	0,0;	0,0
704,4541625976562;	310,0;	0,0;	0,0
704,4993286132812;	283,5;	0,0;	0,0
704,5445556640625;	257,75;	0,0;	0,0
704,5897827148438;	273,75;	0,0;	0,0
704,6348876953125;	287,0;	0,0;	0,0
704,6800537109375;	307,5;	0,0;	0,0
704,7252197265625;	306,75;	0,0;	0,0
704,7702026367188;	277,75;	0,0;	0,0
704,8153076171875;	266,25;	0,0;	0,0
704,8603515625;	274,5;	0,0;	0,0
704,9054565429688;	301,25;	0,0;	0,0
704,9505615234375;	279,75;	0,0;	0,0
704,9955444335938;	244,25;	0,0;	0,0
705,04052734375;	299,5;	0,0;	0,0
705,0855102539062;	255,25;	0,0;	0,0
705,1304931640625;	290,5;	0,0;	0,0
705,1754150390625;	275,75;	0,0;	0,0
705,2203979492188;	290,5;	0,0;	0,0
705,2652587890625;	283,25;	0,0;	0,0
705,3102416992188;	286,0;	0,0;	0,0
705,3551025390625;	299,25;	0,0;	0,0
705,39990234375;	287,75;	0,0;	0,0
705,4447631835938;	270,25;	0,0;	0,0
705,4896850585938;	269,5;	0,0;	0,0
705,534423828125;	291,0;	0,0;	0,0
705,5792846679688;	277,0;	0,0;	0,0
705,6240234375;	273,25;	0,0;	0,0
705,6688232421875;	283,5;	0,0;	0,0
705,7135620117188;	286,75;	0,0;	0,0
705,75830078125;	259,0;	0,0;	0,0
705,8029174804688;	296,0;	0,0;	0,0
705,84765625;	307,5;	0,0;	0,0
705,892333984375;	285,25;	0,0;	0,0
705,93701171875;	312,25;	0,0;	0,0
705,981689453125;	313,0;	0,0;	0,0
706,0262451171875;	292,0;	0,0;	0,0
706,0708618164062;	274,25;	0,0;	0,0
706,1155395507812;	290,0;	0,0;	0,0
706,1600341796875;	291,5;	0,0;	0,0
706,2046508789062;	275,0;	0,0;	0,0
706,2492065429688;	280,0;	0,0;	0,0
706,2936401367188;	301,0;	0,0;	0,0
706,3381958007812;	287,0;	0,0;	0,0
706,3826293945312;	266,25;	0,0;	0,0
706,4271240234375;	297,5;	0,0;	0,0
706,4716186523438;	300,0;	0,0;	0,0
706,5160522460938;	264,0;	0,0;	0,0
706,5604248046875;	296,5;	0,0;	0,0
706,6048583984375;	306,0;	0,0;	0,0
706,6492309570312;	286,25;	0,0;	0,0
706,693603515625;	308,0;	0,0;	0,0
706,738037109375;	318,5;	0,0;	0,0
706,7823486328125;	290,25;	0,0;	0,0
706,82666015625;	302,5;	0,0;	0,0
706,8709716796875;	305,5;	0,0;	0,0
706,9152221679688;	293,5;	0,0;	0,0
706,9595336914062;	296,25;	0,0;	0,0
707,0037841796875;	240,5;	0,0;	0,0
707,0479736328125;	283,75;	0,0;	0,0
707,0922241210938;	274,75;	0,0;	0,0
707,136474609375;	276,25;	0,0;	0,0
707,1806030273438;	251,5;	0,0;	0,0
707,2247314453125;	284,75;	0,0;	0,0
707,2689819335938;	275,25;	0,0;	0,0
707,3130493164062;	258,75;	0,0;	0,0
707,357177734375;	265,5;	0,0;	0,0
707,4012451171875;	251,25;	0,0;	0,0
707,4453125;	274,75;	0,0;	0,0
707,4893798828125;	266,5;	0,0;	0,0
707,5333862304688;	288,75;	0,0;	0,0
707,5774536132812;	277,75;	0,0;	0,0
707,6215209960938;	284,5;	0,0;	0,0
707,6654663085938;	294,25;	0,0;	0,0
707,70947265625;	296,25;	0,0;	0,0
707,75341796875;	290,75;	0,0;	0,0
707,7973022460938;	289,25;	0,0;	0,0
707,84130859375;	295,75;	0,0;	0,0
707,8851928710938;	285,0;	0,0;	0,0
707,9290771484375;	301,0;	0,0;	0,0
707,9729614257812;	256,75;	0,0;	0,0
708,016845703125;	273,5;	0,0;	0,0
708,0606079101562;	253,25;	0,0;	0,0
708,1044921875;	282,0;	0,0;	0,0
708,1482543945312;	265,5;	0,0;	0,0
708,1920166015625;	252,75;	0,0;	0,0
708,2359008789062;	271,75;	0,0;	0,0
708,2796020507812;	269,5;	0,0;	0,0
708,3233032226562;	265,5;	0,0;	0,0
708,3670654296875;	257,75;	0,0;	0,0
708,4107055664062;	282,75;	0,0;	0,0
708,4544067382812;	273,75;	0,0;	0,0
708,4981079101562;	282,25;	0,0;	0,0
708,541748046875;	287,75;	0,0;	0,0
708,5853881835938;	287,75;	0,0;	0,0
708,6289672851562;	273,25;	0,0;	0,0
708,6725463867188;	269,25;	0,0;	0,0
708,7161865234375;	293,5;	0,0;	0,0
708,7598266601562;	275,75;	0,0;	0,0
708,8032836914062;	254,25;	0,0;	0,0
708,8468627929688;	281,0;	0,0;	0,0
708,8903198242188;	275,5;	0,0;	0,0
708,933837890625;	291,75;	0,0;	0,0
708,977294921875;	297,25;	0,0;	0,0
709,020751953125;	303,5;	0,0;	0,0
709,064208984375;	282,0;	0,0;	0,0
709,107666015625;	282,75;	0,0;	0,0
709,1510009765625;	250,25;	0,0;	0,0
709,1943969726562;	284,0;	0,0;	0,0
709,23779296875;	281,75;	0,0;	0,0
709,2811279296875;	290,5;	0,0;	0,0
709,324462890625;	278,75;	0,0;	0,0
709,3678588867188;	299,5;	0,0;	0,0
709,4111328125;	266,5;	0,0;	0,0
709,4544067382812;	274,25;	0,0;	0,0
709,4977416992188;	297,75;	0,0;	0,0
709,5409545898438;	263,75;	0,0;	0,0
709,5841674804688;	268,75;	0,0;	0,0
709,6273803710938;	267,25;	0,0;	0,0
709,6705932617188;	296,5;	0,0;	0,0
709,7138061523438;	290,25;	0,0;	0,0
709,7570190429688;	297,75;	0,0;	0,0
709,8001098632812;	265,25;	0,0;	0,0
709,84326171875;	268,5;	0,0;	0,0
709,8863525390625;	259,25;	0,0;	0,0
709,929443359375;	272,5;	0,0;	0,0
709,9725952148438;	262,75;	0,0;	0,0
710,015625;	268,0;	0,0;	0,0
710,0586547851562;	268,25;	0,0;	0,0
710,1016845703125;	284,0;	0,0;	0,0
710,1446533203125;	301,75;	0,0;	0,0
710,1876831054688;	291,75;	0,0;	0,0
710,230712890625;	283,0;	0,0;	0,0
710,2736206054688;	270,0;	0,0;	0,0
710,3165893554688;	255,5;	0,0;	0,0
710,3594970703125;	279,75;	0,0;	0,0
710,4024047851562;	275,25;	0,0;	0,0
710,4453125;	273,5;	0,0;	0,0
710,4882202148438;	283,5;	0,0;	0,0
710,5310668945312;	287,25;	0,0;	0,0
710,5738525390625;	275,25;	0,0;	0,0
710,61669921875;	271,5;	0,0;	0,0
710,6594848632812;	238,25;	0,0;	0,0
710,7023315429688;	260,25;	0,0;	0,0
710,7450561523438;	262,0;	0,0;	0,0
710,7877807617188;	302,0;	0,0;	0,0
710,83056640625;	252,25;	0,0;	0,0
710,873291015625;	281,0;	0,0;	0,0
710,9159545898438;	248,5;	0,0;	0,0
710,9586791992188;	275,5;	0,0;	0,0
711,0012817382812;	267,0;	0,0;	0,0
711,0439453125;	270,0;	0,0;	0,0
711,0865478515625;	269,0;	0,0;	0,0
711,1292114257812;	264,25;	0,0;	0,0
711,1718139648438;	265,75;	0,0;	0,0
711,2144165039062;	293,0;	0,0;	0,0
711,2568969726562;	268,5;	0,0;	0,0
711,2994995117188;	271,0;	0,0;	0,0
711,342041015625;	272,5;	0,0;	0,0
711,384521484375;	275,75;	0,0;	0,0
711,4270629882812;	304,5;	0,0;	0,0
711,469482421875;	259,75;	0,0;	0,0
711,511962890625;	292,0;	0,0;	0,0
711,5543823242188;	275,75;	0,0;	0,0
711,5968017578125;	265,75;	0,0;	0,0
711,6392211914062;	302,75;	0,0;	0,0
711,681640625;	257,25;	0,0;	0,0
711,7239990234375;	268,5;	0,0;	0,0
711,766357421875;	266,75;	0,0;	0,0
711,8087158203125;	263,75;	0,0;	0,0
711,8510131835938;	284,25;	0,0;	0,0
711,893310546875;	283,0;	0,0;	0,0
711,9356689453125;	248,75;	0,0;	0,0
711,9779052734375;	271,25;	0,0;	0,0
712,0201416015625;	273,25;	0,0;	0,0
712,0623168945312;	287,5;	0,0;	0,0
712,1045532226562;	269,0;	0,0;	0,0
712,1467895507812;	258,75;	0,0;	0,0
712,1889038085938;	268,0;	0,0;	0,0
712,2311401367188;	256,0;	0,0;	0,0
712,2733154296875;	290,25;	0,0;	0,0
712,3153686523438;	279,5;	0,0;	0,0
712,3575439453125;	256,25;	0,0;	0,0
712,3995971679688;	261,5;	0,0;	0,0
712,441650390625;	283,0;	0,0;	0,0
712,4837646484375;	288,5;	0,0;	0,0
712,5258178710938;	261,75;	0,0;	0,0
712,5678100585938;	246,0;	0,0;	0,0
712,6098022460938;	268,25;	0,0;	0,0
712,6517944335938;	272,5;	0,0;	0,0
712,6937255859375;	263,75;	0,0;	0,0
712,7357177734375;	276,25;	0,0;	0,0
712,7776489257812;	280,0;	0,0;	0,0
712,819580078125;	280,0;	0,0;	0,0
712,8615112304688;	270,75;	0,0;	0,0
712,9033813476562;	298,75;	0,0;	0,0
712,9452514648438;	279,5;	0,0;	0,0
712,9871215820312;	325,5;	0,0;	0,0
713,0289306640625;	308,5;	0,0;	0,0
713,0707397460938;	306,25;	0,0;	0,0
713,1126098632812;	290,25;	0,0;	0,0
713,154296875;	266,75;	0,0;	0,0
713,1961059570312;	276,25;	0,0;	0,0
713,2378540039062;	250,25;	0,0;	0,0
713,279541015625;	293,5;	0,0;	0,0
713,3212890625;	273,0;	0,0;	0,0
713,363037109375;	259,25;	0,0;	0,0
713,4046630859375;	267,0;	0,0;	0,0
713,4463500976562;	288,5;	0,0;	0,0
713,4879150390625;	286,75;	0,0;	0,0
713,5296020507812;	289,0;	0,0;	0,0
713,5712280273438;	267,5;	0,0;	0,0
713,6128540039062;	245,0;	0,0;	0,0
713,6543579101562;	278,75;	0,0;	0,0
713,6959228515625;	264,25;	0,0;	0,0
713,7374267578125;	268,0;	0,0;	0,0
713,7789916992188;	291,25;	0,0;	0,0
713,8204345703125;	270,0;	0,0;	0,0
713,8619384765625;	282,25;	0,0;	0,0
713,9034423828125;	286,5;	0,0;	0,0
713,9448852539062;	262,5;	0,0;	0,0
713,9862670898438;	256,0;	0,0;	0,0
714,0277099609375;	279,0;	0,0;	0,0
714,0691528320312;	249,5;	0,0;	0,0
714,1104736328125;	288,75;	0,0;	0,0
714,1519165039062;	288,75;	0,0;	0,0
714,1931762695312;	275,5;	0,0;	0,0
714,2345581054688;	260,5;	0,0;	0,0
714,27587890625;	261,75;	0,0;	0,0
714,3171997070312;	264,25;	0,0;	0,0
714,3583984375;	253,25;	0,0;	0,0
714,3997192382812;	279,25;	0,0;	0,0
714,44091796875;	283,75;	0,0;	0,0
714,4821166992188;	278,75;	0,0;	0,0
714,5233764648438;	298,0;	0,0;	0,0
714,5645141601562;	328,0;	0,0;	0,0
714,6056518554688;	330,0;	0,0;	0,0
714,6469116210938;	365,75;	0,0;	0,0
714,68798828125;	347,25;	0,0;	0,0
714,7291259765625;	468,5;	0,0;	0,0
714,7702026367188;	519,5;	0,0;	0,0
714,811279296875;	362,0;	0,0;	0,0
714,8523559570312;	264,25;	0,0;	0,0
714,8933715820312;	257,5;	0,0;	0,0
714,9344482421875;	261,25;	0,0;	0,0
714,9754638671875;	253,75;	0,0;	0,0
715,0164794921875;	284,0;	0,0;	0,0
715,0574340820312;	259,0;	0,0;	0,0
715,0984497070312;	267,75;	0,0;	0,0
715,1393432617188;	254,5;	0,0;	0,0
715,1802978515625;	284,75;	0,0;	0,0
715,22119140625;	257,0;	0,0;	0,0
715,2620239257812;	267,0;	0,0;	0,0
715,3029174804688;	284,25;	0,0;	0,0
715,3438110351562;	259,25;	0,0;	0,0
715,3845825195312;	262,25;	0,0;	0,0
715,4254760742188;	275,5;	0,0;	0,0
715,4662475585938;	269,0;	0,0;	0,0
715,5070190429688;	295,0;	0,0;	0,0
715,5477905273438;	281,0;	0,0;	0,0
715,5885620117188;	316,5;	0,0;	0,0
715,6293334960938;	322,25;	0,0;	0,0
715,6700439453125;	321,5;	0,0;	0,0
715,7107543945312;	325,5;	0,0;	0,0
715,7513427734375;	311,0;	0,0;	0,0
715,7920532226562;	289,75;	0,0;	0,0
715,8327026367188;	287,5;	0,0;	0,0
715,873291015625;	279,25;	0,0;	0,0
715,9139404296875;	231,25;	0,0;	0,0
715,9545288085938;	277,5;	0,0;	0,0
715,9951171875;	255,75;	0,0;	0,0
716,0357055664062;	263,25;	0,0;	0,0
716,0762329101562;	258,0;	0,0;	0,0
716,1167602539062;	282,0;	0,0;	0,0
716,1572875976562;	292,25;	0,0;	0,0
716,1976928710938;	294,25;	0,0;	0,0
716,2382202148438;	252,5;	0,0;	0,0
716,2786865234375;	250,5;	0,0;	0,0
716,319091796875;	273,0;	0,0;	0,0
716,3595581054688;	301,5;	0,0;	0,0
716,3999633789062;	298,5;	0,0;	0,0
716,4402465820312;	303,25;	0,0;	0,0
716,480712890625;	261,25;	0,0;	0,0
716,52099609375;	297,5;	0,0;	0,0
716,5613403320312;	261,25;	0,0;	0,0
716,6016845703125;	272,75;	0,0;	0,0
716,6419677734375;	249,5;	0,0;	0,0
716,6822509765625;	257,5;	0,0;	0,0
716,7224731445312;	262,75;	0,0;	0,0
716,7626953125;	281,5;	0,0;	0,0
716,802978515625;	261,25;	0,0;	0,0
716,8432006835938;	257,75;	0,0;	0,0
716,88330078125;	253,25;	0,0;	0,0
716,9235229492188;	276,75;	0,0;	0,0
716,9636840820312;	243,25;	0,0;	0,0
717,0038452148438;	228,0;	0,0;	0,0
717,0439453125;	262,75;	0,0;	0,0
717,0840454101562;	280,5;	0,0;	0,0
717,1241455078125;	250,25;	0,0;	0,0
717,1641845703125;	254,0;	0,0;	0,0
717,2042236328125;	255,5;	0,0;	0,0
717,2442626953125;	267,75;	0,0;	0,0
717,2843017578125;	260,75;	0,0;	0,0
717,32421875;	251,5;	0,0;	0,0
717,3642578125;	247,0;	0,0;	0,0
717,4042358398438;	265,75;	0,0;	0,0
717,4441528320312;	259,75;	0,0;	0,0
717,484130859375;	258,25;	0,0;	0,0
717,5240478515625;	260,75;	0,0;	0,0
717,5638427734375;	268,0;	0,0;	0,0
717,603759765625;	254,75;	0,0;	0,0
717,6436157226562;	268,75;	0,0;	0,0
717,6834716796875;	260,0;	0,0;	0,0
717,7232666015625;	238,75;	0,0;	0,0
717,7631225585938;	253,0;	0,0;	0,0
717,8028564453125;	285,25;	0,0;	0,0
717,8426513671875;	255,25;	0,0;	0,0
717,8823852539062;	266,5;	0,0;	0,0
717,922119140625;	259,75;	0,0;	0,0
717,9618530273438;	260,0;	0,0;	0,0
718,0015869140625;	264,5;	0,0;	0,0
718,0411987304688;	273,0;	0,0;	0,0
718,0808715820312;	256,75;	0,0;	0,0
718,1204833984375;	287,25;	0,0;	0,0
718,16015625;	263,0;	0,0;	0,0
718,1998291015625;	262,75;	0,0;	0,0
718,2393188476562;	260,0;	0,0;	0,0
718,2789306640625;	257,75;	0,0;	0,0
718,3185424804688;	282,5;	0,0;	0,0
718,3579711914062;	265,5;	0,0;	0,0
718,3975830078125;	266,75;	0,0;	0,0
718,4370727539062;	273,0;	0,0;	0,0
718,4765625;	278,25;	0,0;	0,0
718,5159912109375;	301,75;	0,0;	0,0
718,555419921875;	291,75;	0,0;	0,0
718,5948486328125;	307,75;	0,0;	0,0
718,6343383789062;	296,0;	0,0;	0,0
718,6737060546875;	363,5;	0,0;	0,0
718,7130737304688;	369,25;	0,0;	0,0
718,75244140625;	317,25;	0,0;	0,0
718,791748046875;	268,25;	0,0;	0,0
718,8311157226562;	267,5;	0,0;	0,0
718,8704223632812;	275,75;	0,0;	0,0
718,90966796875;	249,0;	0,0;	0,0
718,948974609375;	256,0;	0,0;	0,0
718,98828125;	247,0;	0,0;	0,0
719,0274047851562;	246,75;	0,0;	0,0
719,0667114257812;	254,75;	0,0;	0,0
719,1058959960938;	252,5;	0,0;	0,0
719,1450805664062;	237,0;	0,0;	0,0
719,1842651367188;	276,5;	0,0;	0,0
719,223388671875;	271,25;	0,0;	0,0
719,2625122070312;	236,75;	0,0;	0,0
719,3016357421875;	241,25;	0,0;	0,0
719,3407592773438;	259,0;	0,0;	0,0
719,3797607421875;	239,75;	0,0;	0,0
719,4188842773438;	256,0;	0,0;	0,0
719,4578857421875;	253,25;	0,0;	0,0
719,4969482421875;	251,0;	0,0;	0,0
719,5359497070312;	251,5;	0,0;	0,0
719,5748901367188;	255,25;	0,0;	0,0
719,6139526367188;	256,5;	0,0;	0,0
719,65283203125;	256,0;	0,0;	0,0
719,6917724609375;	272,0;	0,0;	0,0
719,7307739257812;	254,25;	0,0;	0,0
719,7696533203125;	256,5;	0,0;	0,0
719,8085327148438;	258,25;	0,0;	0,0
719,8473510742188;	256,0;	0,0;	0,0
719,8862915039062;	257,0;	0,0;	0,0
719,925048828125;	284,0;	0,0;	0,0
719,9638671875;	273,25;	0,0;	0,0
720,002685546875;	260,0;	0,0;	0,0
720,0413818359375;	278,5;	0,0;	0,0
720,0802001953125;	310,0;	0,0;	0,0
720,1189575195312;	313,0;	0,0;	0,0
720,1576538085938;	340,0;	0,0;	0,0
720,1963500976562;	332,5;	0,0;	0,0
720,2350463867188;	271,75;	0,0;	0,0
720,2737426757812;	251,5;	0,0;	0,0
720,3124389648438;	251,5;	0,0;	0,0
720,3509521484375;	248,0;	0,0;	0,0
720,3896484375;	239,25;	0,0;	0,0
720,4282836914062;	249,75;	0,0;	0,0
720,466796875;	274,25;	0,0;	0,0
720,5054321289062;	252,25;	0,0;	0,0
720,5439453125;	261,5;	0,0;	0,0
720,5824584960938;	276,0;	0,0;	0,0
720,6210327148438;	280,25;	0,0;	0,0
720,6594848632812;	310,5;	0,0;	0,0
720,6979370117188;	328,5;	0,0;	0,0
720,7363891601562;	289,25;	0,0;	0,0
720,7747802734375;	289,5;	0,0;	0,0
720,813232421875;	244,5;	0,0;	0,0
720,8516845703125;	261,75;	0,0;	0,0
720,8900146484375;	259,25;	0,0;	0,0
720,928466796875;	236,5;	0,0;	0,0
720,9668579101562;	250,75;	0,0;	0,0
721,0050659179688;	247,25;	0,0;	0,0
721,04345703125;	251,25;	0,0;	0,0
721,0817260742188;	258,0;	0,0;	0,0
721,1199951171875;	253,25;	0,0;	0,0
721,1582641601562;	233,75;	0,0;	0,0
721,1964721679688;	256,0;	0,0;	0,0
721,2347412109375;	239,0;	0,0;	0,0
721,2730102539062;	243,5;	0,0;	0,0
721,3112182617188;	266,5;	0,0;	0,0
721,3493041992188;	242,75;	0,0;	0,0
721,3875122070312;	242,5;	0,0;	0,0
721,4255981445312;	242,5;	0,0;	0,0
721,4637451171875;	247,75;	0,0;	0,0
721,5018310546875;	250,75;	0,0;	0,0
721,5399780273438;	238,25;	0,0;	0,0
721,5780029296875;	256,75;	0,0;	0,0
721,6160888671875;	254,75;	0,0;	0,0
721,654052734375;	242,75;	0,0;	0,0
721,6920776367188;	255,25;	0,0;	0,0
721,7301635742188;	251,0;	0,0;	0,0
721,76806640625;	239,75;	0,0;	0,0
721,8060302734375;	252,75;	0,0;	0,0
721,8439331054688;	251,75;	0,0;	0,0
721,8818359375;	252,0;	0,0;	0,0
721,9197998046875;	245,0;	0,0;	0,0
721,9577026367188;	242,75;	0,0;	0,0
721,9955444335938;	281,25;	0,0;	0,0
722,0333862304688;	254,75;	0,0;	0,0
722,0712280273438;	240,5;	0,0;	0,0
722,1090698242188;	247,5;	0,0;	0,0
722,1468505859375;	256,25;	0,0;	0,0
722,1846923828125;	245,0;	0,0;	0,0
722,222412109375;	258,75;	0,0;	0,0
722,2601928710938;	239,75;	0,0;	0,0
722,2978515625;	247,75;	0,0;	0,0
722,3355712890625;	254,5;	0,0;	0,0
722,3733520507812;	254,0;	0,0;	0,0
722,4109497070312;	228,75;	0,0;	0,0
722,4486694335938;	251,75;	0,0;	0,0
722,4862670898438;	249,25;	0,0;	0,0
722,5238647460938;	247,25;	0,0;	0,0
722,5615234375;	249,0;	0,0;	0,0
722,59912109375;	248,75;	0,0;	0,0
722,6365966796875;	263,25;	0,0;	0,0
722,6741943359375;	260,0;	0,0;	0,0
722,711669921875;	238,0;	0,0;	0,0
722,7492065429688;	222,0;	0,0;	0,0
722,7867431640625;	271,75;	0,0;	0,0
722,82421875;	236,5;	0,0;	0,0
722,8616943359375;	246,0;	0,0;	0,0
722,899169921875;	246,5;	0,0;	0,0
722,9364624023438;	263,0;	0,0;	0,0
722,9739379882812;	238,25;	0,0;	0,0
723,0113525390625;	245,25;	0,0;	0,0
723,0487060546875;	234,5;	0,0;	0,0
723,0860595703125;	257,25;	0,0;	0,0
723,1234130859375;	240,0;	0,0;	0,0
723,16064453125;	261,5;	0,0;	0,0
723,1980590820312;	233,0;	0,0;	0,0
723,2353515625;	244,75;	0,0;	0,0
723,2725219726562;	249,5;	0,0;	0,0
723,309814453125;	257,5;	0,0;	0,0
723,3469848632812;	233,25;	0,0;	0,0
723,3842163085938;	255,0;	0,0;	0,0
723,4214477539062;	265,25;	0,0;	0,0
723,4586181640625;	239,75;	0,0;	0,0
723,4957885742188;	236,75;	0,0;	0,0
723,532958984375;	240,0;	0,0;	0,0
723,5700073242188;	234,5;	0,0;	0,0
723,6071166992188;	252,0;	0,0;	0,0
723,644287109375;	244,25;	0,0;	0,0
723,6813354492188;	238,75;	0,0;	0,0
723,7183837890625;	251,5;	0,0;	0,0
723,75537109375;	238,25;	0,0;	0,0
723,7923583984375;	239,5;	0,0;	0,0
723,8294067382812;	230,0;	0,0;	0,0
723,8663940429688;	222,25;	0,0;	0,0
723,9033203125;	252,75;	0,0;	0,0
723,9402465820312;	271,5;	0,0;	0,0
723,9771728515625;	234,75;	0,0;	0,0
724,0140991210938;	252,5;	0,0;	0,0
724,051025390625;	233,0;	0,0;	0,0
724,087890625;	247,75;	0,0;	0,0
724,1246337890625;	225,25;	0,0;	0,0
724,1615600585938;	240,25;	0,0;	0,0
724,1983032226562;	243,25;	0,0;	0,0
724,235107421875;	245,0;	0,0;	0,0
724,27197265625;	241,25;	0,0;	0,0
724,3087768554688;	236,0;	0,0;	0,0
724,345458984375;	246,5;	0,0;	0,0
724,3821411132812;	216,5;	0,0;	0,0
724,4188842773438;	249,0;	0,0;	0,0
724,45556640625;	236,5;	0,0;	0,0
724,4922485351562;	249,5;	0,0;	0,0
724,5288696289062;	240,25;	0,0;	0,0
724,5655517578125;	244,75;	0,0;	0,0
724,6021118164062;	240,5;	0,0;	0,0
724,6387329101562;	237,25;	0,0;	0,0
724,6753540039062;	235,75;	0,0;	0,0
724,7119140625;	237,5;	0,0;	0,0
724,7484741210938;	238,25;	0,0;	0,0
724,7849731445312;	245,25;	0,0;	0,0
724,8214721679688;	231,5;	0,0;	0,0
724,8579711914062;	246,25;	0,0;	0,0
724,8944702148438;	233,75;	0,0;	0,0
724,930908203125;	240,0;	0,0;	0,0
724,9673461914062;	232,5;	0,0;	0,0
725,0037841796875;	226,25;	0,0;	0,0
725,0401000976562;	217,5;	0,0;	0,0
725,0765991210938;	227,75;	0,0;	0,0
725,1129760742188;	222,5;	0,0;	0,0
725,1492919921875;	216,25;	0,0;	0,0
725,1856079101562;	239,0;	0,0;	0,0
725,221923828125;	244,75;	0,0;	0,0
725,2582397460938;	236,75;	0,0;	0,0
725,2945556640625;	237,75;	0,0;	0,0
725,3307495117188;	227,5;	0,0;	0,0
725,3670043945312;	229,5;	0,0;	0,0
725,4032592773438;	244,75;	0,0;	0,0
725,4393920898438;	226,75;	0,0;	0,0
725,4756469726562;	224,75;	0,0;	0,0
725,5117797851562;	232,75;	0,0;	0,0
725,5479736328125;	247,75;	0,0;	0,0
725,5840454101562;	218,25;	0,0;	0,0
725,6201782226562;	243,75;	0,0;	0,0
725,65625;	244,75;	0,0;	0,0
725,6923828125;	239,25;	0,0;	0,0
725,7284545898438;	241,25;	0,0;	0,0
725,7644653320312;	227,0;	0,0;	0,0
725,800537109375;	230,25;	0,0;	0,0
725,8365478515625;	229,25;	0,0;	0,0
725,8724975585938;	238,5;	0,0;	0,0
725,908447265625;	224,0;	0,0;	0,0
725,9444580078125;	225,0;	0,0;	0,0
725,9803466796875;	238,0;	0,0;	0,0
726,0162353515625;	246,5;	0,0;	0,0
726,0521240234375;	239,25;	0,0;	0,0
726,0880126953125;	241,0;	0,0;	0,0
726,1239624023438;	216,5;	0,0;	0,0
726,1597900390625;	254,5;	0,0;	0,0
726,195556640625;	232,75;	0,0;	0,0
726,2314453125;	229,5;	0,0;	0,0
726,2671508789062;	243,5;	0,0;	0,0
726,302978515625;	238,75;	0,0;	0,0
726,3387451171875;	226,75;	0,0;	0,0
726,3744506835938;	250,25;	0,0;	0,0
726,41015625;	225,75;	0,0;	0,0
726,4459228515625;	228,75;	0,0;	0,0
726,4815063476562;	226,75;	0,0;	0,0
726,5172119140625;	232,25;	0,0;	0,0
726,5529174804688;	238,0;	0,0;	0,0
726,5884399414062;	234,75;	0,0;	0,0
726,6240844726562;	230,75;	0,0;	0,0
726,6596069335938;	241,25;	0,0;	0,0
726,6952514648438;	234,5;	0,0;	0,0
726,7308349609375;	233,5;	0,0;	0,0
726,766357421875;	233,25;	0,0;	0,0
726,8018798828125;	244,25;	0,0;	0,0
726,83740234375;	237,5;	0,0;	0,0
726,8728637695312;	233,75;	0,0;	0,0
726,9083251953125;	226,75;	0,0;	0,0
726,9437866210938;	205,0;	0,0;	0,0
726,9791870117188;	223,0;	0,0;	0,0
727,0146484375;	224,75;	0,0;	0,0
727,0499877929688;	240,75;	0,0;	0,0
727,0853881835938;	205,75;	0,0;	0,0
727,1207885742188;	224,5;	0,0;	0,0
727,1560668945312;	234,0;	0,0;	0,0
727,19140625;	217,75;	0,0;	0,0
727,2266845703125;	249,75;	0,0;	0,0
727,261962890625;	244,25;	0,0;	0,0
727,2972412109375;	241,25;	0,0;	0,0
727,33251953125;	0,0;	0,0;	0,0
