-0.5	0.5
Integration time [ms]:	1.05
Averaging Nr. [scans]:1
Smoothing Nr. [pixels]:0
Data measured with spectrometer [name]:b'1703277U8'
Wave	;Sample	;Dark	;Reference	;Scope	
[nm]	;[counts]	;[counts]	;[counts]	
 
493,2108154296875;	509,25;	0,0;	0,0
493,2895202636719;	466,75;	0,0;	0,0
493,36822509765625;	334,0;	0,0;	0,0
493,4468994140625;	301,0;	0,0;	0,0
493,52557373046875;	327,75;	0,0;	0,0
493,6042175292969;	373,5;	0,0;	0,0
493,6828918457031;	492,25;	0,0;	0,0
493,7615051269531;	496,5;	0,0;	0,0
493,8401184082031;	370,0;	0,0;	0,0
493,9187316894531;	288,75;	0,0;	0,0
493,9973449707031;	294,25;	0,0;	0,0
494,075927734375;	306,5;	0,0;	0,0
494,1545104980469;	286,75;	0,0;	0,0
494,2330627441406;	293,5;	0,0;	0,0
494,3116149902344;	275,25;	0,0;	0,0
494,3901672363281;	306,5;	0,0;	0,0
494,4686584472656;	364,75;	0,0;	0,0
494,5472106933594;	340,25;	0,0;	0,0
494,6257019042969;	300,75;	0,0;	0,0
494,7041931152344;	315,0;	0,0;	0,0
494,78265380859375;	334,25;	0,0;	0,0
494,86114501953125;	332,75;	0,0;	0,0
494,9395751953125;	330,5;	0,0;	0,0
495,0180358886719;	337,25;	0,0;	0,0
495,096435546875;	320,0;	0,0;	0,0
495,1748962402344;	349,5;	0,0;	0,0
495,2532653808594;	382,75;	0,0;	0,0
495,3316650390625;	414,25;	0,0;	0,0
495,4100341796875;	589,5;	0,0;	0,0
495,4884338378906;	1520,5;	0,0;	0,0
495,5667724609375;	4294,25;	0,0;	0,0
495,6451110839844;	4508,25;	0,0;	0,0
495,72344970703125;	997,0;	0,0;	0,0
495,8017883300781;	458,25;	0,0;	0,0
495,8800964355469;	390,75;	0,0;	0,0
495,9583435058594;	345,0;	0,0;	0,0
496,0366516113281;	347,0;	0,0;	0,0
496,11492919921875;	341,5;	0,0;	0,0
496,19317626953125;	316,5;	0,0;	0,0
496,27142333984375;	337,75;	0,0;	0,0
496,34967041015625;	426,5;	0,0;	0,0
496,4278869628906;	501,0;	0,0;	0,0
496,506103515625;	510,75;	0,0;	0,0
496,58428955078125;	378,75;	0,0;	0,0
496,6625061035156;	374,25;	0,0;	0,0
496,74066162109375;	395,75;	0,0;	0,0
496,8188171386719;	414,0;	0,0;	0,0
496,89697265625;	420,75;	0,0;	0,0
496,9751281738281;	345,25;	0,0;	0,0
497,0532531738281;	366,5;	0,0;	0,0
497,1313171386719;	383,75;	0,0;	0,0
497,2094421386719;	391,5;	0,0;	0,0
497,28753662109375;	363,75;	0,0;	0,0
497,3656005859375;	358,0;	0,0;	0,0
497,44366455078125;	353,25;	0,0;	0,0
497,521728515625;	316,75;	0,0;	0,0
497,59979248046875;	371,25;	0,0;	0,0
497,67779541015625;	406,75;	0,0;	0,0
497,7558288574219;	460,5;	0,0;	0,0
497,83380126953125;	399,5;	0,0;	0,0
497,91180419921875;	427,25;	0,0;	0,0
497,9897766113281;	523,0;	0,0;	0,0
498,0677490234375;	755,75;	0,0;	0,0
498,1457214355469;	926,25;	0,0;	0,0
498,2236633300781;	915,75;	0,0;	0,0
498,30157470703125;	705,5;	0,0;	0,0
498,3794860839844;	729,5;	0,0;	0,0
498,4573974609375;	557,75;	0,0;	0,0
498,5353088378906;	410,0;	0,0;	0,0
498,6131896972656;	354,25;	0,0;	0,0
498,6910705566406;	376,25;	0,0;	0,0
498,7688903808594;	414,25;	0,0;	0,0
498,84674072265625;	393,75;	0,0;	0,0
498,924560546875;	411,0;	0,0;	0,0
499,0024108886719;	472,5;	0,0;	0,0
499,0802307128906;	386,0;	0,0;	0,0
499,1579895019531;	434,0;	0,0;	0,0
499,23577880859375;	463,75;	0,0;	0,0
499,3135681152344;	434,5;	0,0;	0,0
499,3913269042969;	323,25;	0,0;	0,0
499,4690856933594;	322,5;	0,0;	0,0
499,5467834472656;	367,0;	0,0;	0,0
499,6245422363281;	349,25;	0,0;	0,0
499,7022399902344;	367,25;	0,0;	0,0
499,7799377441406;	397,5;	0,0;	0,0
499,8576354980469;	404,75;	0,0;	0,0
499,935302734375;	520,0;	0,0;	0,0
500,0129699707031;	832,5;	0,0;	0,0
500,090576171875;	729,0;	0,0;	0,0
500,1682434082031;	459,75;	0,0;	0,0
500,2458801269531;	453,25;	0,0;	0,0
500,323486328125;	610,0;	0,0;	0,0
500,40106201171875;	1104,25;	0,0;	0,0
500,47869873046875;	1365,5;	0,0;	0,0
500,5562744140625;	727,25;	0,0;	0,0
500,6337890625;	483,5;	0,0;	0,0
500,71136474609375;	391,0;	0,0;	0,0
500,7889099121094;	379,0;	0,0;	0,0
500,8664245605469;	357,75;	0,0;	0,0
500,9439392089844;	445,5;	0,0;	0,0
501,02142333984375;	665,25;	0,0;	0,0
501,09893798828125;	665,5;	0,0;	0,0
501,1764221191406;	404,5;	0,0;	0,0
501,25384521484375;	503,25;	0,0;	0,0
501,33135986328125;	662,75;	0,0;	0,0
501,40875244140625;	502,0;	0,0;	0,0
501,4862060546875;	408,25;	0,0;	0,0
501,5636291503906;	442,25;	0,0;	0,0
501,6410217285156;	593,5;	0,0;	0,0
501,7184143066406;	654,75;	0,0;	0,0
501,7957763671875;	395,0;	0,0;	0,0
501,8731384277344;	347,0;	0,0;	0,0
501,95050048828125;	393,0;	0,0;	0,0
502,0278625488281;	476,75;	0,0;	0,0
502,10516357421875;	507,25;	0,0;	0,0
502,1824951171875;	394,0;	0,0;	0,0
502,2597961425781;	338,5;	0,0;	0,0
502,33709716796875;	351,0;	0,0;	0,0
502,41436767578125;	378,25;	0,0;	0,0
502,4916687011719;	420,5;	0,0;	0,0
502,56890869140625;	512,5;	0,0;	0,0
502,6461486816406;	466,25;	0,0;	0,0
502,7233581542969;	406,5;	0,0;	0,0
502,8006286621094;	375,5;	0,0;	0,0
502,8778076171875;	329,75;	0,0;	0,0
502,9549865722656;	330,75;	0,0;	0,0
503,03216552734375;	364,5;	0,0;	0,0
503,1093444824219;	331,25;	0,0;	0,0
503,1865234375;	340,75;	0,0;	0,0
503,2636413574219;	329,25;	0,0;	0,0
503,34075927734375;	336,25;	0,0;	0,0
503,41790771484375;	353,25;	0,0;	0,0
503,4949951171875;	361,5;	0,0;	0,0
503,57208251953125;	349,25;	0,0;	0,0
503,6492004394531;	337,0;	0,0;	0,0
503,72625732421875;	409,0;	0,0;	0,0
503,8033142089844;	448,5;	0,0;	0,0
503,88037109375;	563,75;	0,0;	0,0
503,9573974609375;	729,5;	0,0;	0,0
504,034423828125;	691,5;	0,0;	0,0
504,1114196777344;	428,5;	0,0;	0,0
504,18841552734375;	333,75;	0,0;	0,0
504,2654113769531;	347,25;	0,0;	0,0
504,3423767089844;	348,75;	0,0;	0,0
504,4193115234375;	316,75;	0,0;	0,0
504,49627685546875;	313,75;	0,0;	0,0
504,5732421875;	366,25;	0,0;	0,0
504,650146484375;	384,5;	0,0;	0,0
504,7270202636719;	477,75;	0,0;	0,0
504,8039245605469;	709,25;	0,0;	0,0
504,880859375;	632,75;	0,0;	0,0
504,95770263671875;	517,0;	0,0;	0,0
505,0345458984375;	531,75;	0,0;	0,0
505,1114196777344;	374,25;	0,0;	0,0
505,1882629394531;	357,0;	0,0;	0,0
505,2650451660156;	363,75;	0,0;	0,0
505,34185791015625;	323,5;	0,0;	0,0
505,4186706542969;	314,25;	0,0;	0,0
505,4954528808594;	339,0;	0,0;	0,0
505,57220458984375;	340,0;	0,0;	0,0
505,6489562988281;	335,25;	0,0;	0,0
505,72576904296875;	320,75;	0,0;	0,0
505,802490234375;	333,5;	0,0;	0,0
505,87921142578125;	335,5;	0,0;	0,0
505,9559020996094;	332,0;	0,0;	0,0
506,0326232910156;	314,5;	0,0;	0,0
506,1092834472656;	338,75;	0,0;	0,0
506,1859436035156;	373,25;	0,0;	0,0
506,2626037597656;	439,25;	0,0;	0,0
506,3392639160156;	505,5;	0,0;	0,0
506,4159240722656;	436,75;	0,0;	0,0
506,4925231933594;	374,75;	0,0;	0,0
506,56915283203125;	426,5;	0,0;	0,0
506,645751953125;	458,0;	0,0;	0,0
506,72235107421875;	569,25;	0,0;	0,0
506,7989196777344;	449,25;	0,0;	0,0
506,8754577636719;	383,75;	0,0;	0,0
506,9520263671875;	352,75;	0,0;	0,0
507,028564453125;	400,0;	0,0;	0,0
507,1050720214844;	410,5;	0,0;	0,0
507,1816101074219;	466,0;	0,0;	0,0
507,2580871582031;	518,25;	0,0;	0,0
507,3345642089844;	573,75;	0,0;	0,0
507,4110412597656;	435,0;	0,0;	0,0
507,487548828125;	395,25;	0,0;	0,0
507,56396484375;	376,0;	0,0;	0,0
507,640380859375;	388,0;	0,0;	0,0
507,71685791015625;	539,75;	0,0;	0,0
507,7932434082031;	581,5;	0,0;	0,0
507,86962890625;	402,5;	0,0;	0,0
507,9460144042969;	341,0;	0,0;	0,0
508,02239990234375;	311,5;	0,0;	0,0
508,0987548828125;	360,25;	0,0;	0,0
508,17510986328125;	511,25;	0,0;	0,0
508,2514343261719;	393,75;	0,0;	0,0
508,3277893066406;	333,0;	0,0;	0,0
508,4040832519531;	347,25;	0,0;	0,0
508,4803771972656;	327,0;	0,0;	0,0
508,556640625;	324,0;	0,0;	0,0
508,6329650878906;	311,25;	0,0;	0,0
508,7091979980469;	339,5;	0,0;	0,0
508,78546142578125;	325,5;	0,0;	0,0
508,8616943359375;	361,0;	0,0;	0,0
508,93792724609375;	405,5;	0,0;	0,0
509,0141296386719;	360,5;	0,0;	0,0
509,09033203125;	328,75;	0,0;	0,0
509,1665344238281;	313,75;	0,0;	0,0
509,24267578125;	315,0;	0,0;	0,0
509,31884765625;	301,75;	0,0;	0,0
509,3949890136719;	365,25;	0,0;	0,0
509,4711608886719;	377,25;	0,0;	0,0
509,5472717285156;	490,25;	0,0;	0,0
509,62335205078125;	470,0;	0,0;	0,0
509,699462890625;	534,75;	0,0;	0,0
509,77557373046875;	488,0;	0,0;	0,0
509,85162353515625;	350,5;	0,0;	0,0
509,92767333984375;	332,5;	0,0;	0,0
510,00372314453125;	342,5;	0,0;	0,0
510,0798034667969;	323,75;	0,0;	0,0
510,15582275390625;	318,0;	0,0;	0,0
510,2318115234375;	354,75;	0,0;	0,0
510,3078308105469;	365,75;	0,0;	0,0
510,3837890625;	470,25;	0,0;	0,0
510,45977783203125;	462,25;	0,0;	0,0
510,5357360839844;	432,5;	0,0;	0,0
510,6116943359375;	574,75;	0,0;	0,0
510,6876220703125;	404,75;	0,0;	0,0
510,7635498046875;	391,0;	0,0;	0,0
510,8394470214844;	481,5;	0,0;	0,0
510,9153747558594;	547,25;	0,0;	0,0
510,9912414550781;	356,75;	0,0;	0,0
511,0671081542969;	356,25;	0,0;	0,0
511,1429443359375;	318,5;	0,0;	0,0
511,2188415527344;	354,25;	0,0;	0,0
511,2946472167969;	335,5;	0,0;	0,0
511,3704833984375;	339,25;	0,0;	0,0
511,4462890625;	321,5;	0,0;	0,0
511,5220947265625;	293,25;	0,0;	0,0
511,59783935546875;	344,5;	0,0;	0,0
511,6736145019531;	316,25;	0,0;	0,0
511,7494201660156;	315,5;	0,0;	0,0
511,82513427734375;	326,25;	0,0;	0,0
511,90087890625;	328,5;	0,0;	0,0
511,97662353515625;	368,75;	0,0;	0,0
512,0523071289062;	377,5;	0,0;	0,0
512,1280517578125;	405,25;	0,0;	0,0
512,2036743164062;	440,5;	0,0;	0,0
512,2793579101562;	461,25;	0,0;	0,0
512,3550415039062;	543,25;	0,0;	0,0
512,4306640625;	473,25;	0,0;	0,0
512,5062866210938;	402,5;	0,0;	0,0
512,5819702148438;	444,25;	0,0;	0,0
512,657470703125;	352,0;	0,0;	0,0
512,7330932617188;	339,0;	0,0;	0,0
512,8087158203125;	373,0;	0,0;	0,0
512,88427734375;	338,25;	0,0;	0,0
512,9598999023438;	413,0;	0,0;	0,0
513,035400390625;	465,0;	0,0;	0,0
513,1109008789062;	547,0;	0,0;	0,0
513,1864624023438;	786,0;	0,0;	0,0
513,2619018554688;	638,0;	0,0;	0,0
513,33740234375;	442,0;	0,0;	0,0
513,4129638671875;	398,0;	0,0;	0,0
513,4884033203125;	413,0;	0,0;	0,0
513,5638427734375;	501,0;	0,0;	0,0
513,6392822265625;	598,5;	0,0;	0,0
513,7147216796875;	918,0;	0,0;	0,0
513,7901000976562;	1498,0;	0,0;	0,0
513,8655395507812;	915,5;	0,0;	0,0
513,94091796875;	450,0;	0,0;	0,0
514,0162963867188;	464,75;	0,0;	0,0
514,0916748046875;	529,0;	0,0;	0,0
514,1669921875;	486,0;	0,0;	0,0
514,2423706054688;	391,75;	0,0;	0,0
514,3176879882812;	353,5;	0,0;	0,0
514,3930053710938;	355,25;	0,0;	0,0
514,4683837890625;	351,5;	0,0;	0,0
514,5435791015625;	374,5;	0,0;	0,0
514,618896484375;	429,75;	0,0;	0,0
514,694091796875;	441,75;	0,0;	0,0
514,7694091796875;	401,5;	0,0;	0,0
514,8446655273438;	387,75;	0,0;	0,0
514,9198608398438;	471,75;	0,0;	0,0
514,9950561523438;	455,75;	0,0;	0,0
515,0703125;	412,75;	0,0;	0,0
515,1454467773438;	432,75;	0,0;	0,0
515,220703125;	411,75;	0,0;	0,0
515,2957763671875;	380,25;	0,0;	0,0
515,3709716796875;	319,75;	0,0;	0,0
515,4461059570312;	350,75;	0,0;	0,0
515,521240234375;	343,75;	0,0;	0,0
515,5963745117188;	371,75;	0,0;	0,0
515,6714477539062;	377,0;	0,0;	0,0
515,7465209960938;	403,25;	0,0;	0,0
515,8215942382812;	397,75;	0,0;	0,0
515,896728515625;	384,75;	0,0;	0,0
515,9717407226562;	453,25;	0,0;	0,0
516,0467529296875;	541,5;	0,0;	0,0
516,121826171875;	616,5;	0,0;	0,0
516,1968383789062;	495,75;	0,0;	0,0
516,2717895507812;	456,25;	0,0;	0,0
516,3468017578125;	506,5;	0,0;	0,0
516,4217529296875;	682,75;	0,0;	0,0
516,4967651367188;	1156,75;	0,0;	0,0
516,5716552734375;	2572,75;	0,0;	0,0
516,6466674804688;	2181,5;	0,0;	0,0
516,7215576171875;	919,75;	0,0;	0,0
516,7964477539062;	695,75;	0,0;	0,0
516,871337890625;	501,75;	0,0;	0,0
516,9461669921875;	715,25;	0,0;	0,0
517,0211181640625;	1046,75;	0,0;	0,0
517,0960083007812;	681,75;	0,0;	0,0
517,1707763671875;	478,25;	0,0;	0,0
517,24560546875;	350,75;	0,0;	0,0
517,3204345703125;	301,0;	0,0;	0,0
517,3952026367188;	329,25;	0,0;	0,0
517,4700927734375;	333,75;	0,0;	0,0
517,5448608398438;	326,0;	0,0;	0,0
517,61962890625;	313,75;	0,0;	0,0
517,6943969726562;	327,5;	0,0;	0,0
517,7691040039062;	340,5;	0,0;	0,0
517,8438110351562;	349,25;	0,0;	0,0
517,9185791015625;	369,0;	0,0;	0,0
517,9932250976562;	366,75;	0,0;	0,0
518,0679321289062;	396,75;	0,0;	0,0
518,1426391601562;	481,25;	0,0;	0,0
518,21728515625;	658,5;	0,0;	0,0
518,2919311523438;	438,5;	0,0;	0,0
518,3665771484375;	370,75;	0,0;	0,0
518,4412231445312;	336,75;	0,0;	0,0
518,515869140625;	358,5;	0,0;	0,0
518,5903930664062;	357,25;	0,0;	0,0
518,6650390625;	435,75;	0,0;	0,0
518,7396240234375;	429,75;	0,0;	0,0
518,8141479492188;	418,75;	0,0;	0,0
518,8887329101562;	538,75;	0,0;	0,0
518,9631958007812;	941,0;	0,0;	0,0
519,0377807617188;	1301,75;	0,0;	0,0
519,1123046875;	1219,75;	0,0;	0,0
519,186767578125;	586,75;	0,0;	0,0
519,2612915039062;	529,25;	0,0;	0,0
519,3358154296875;	752,5;	0,0;	0,0
519,41015625;	679,25;	0,0;	0,0
519,4846801757812;	428,25;	0,0;	0,0
519,5591430664062;	372,25;	0,0;	0,0
519,633544921875;	403,5;	0,0;	0,0
519,7080078125;	409,25;	0,0;	0,0
519,7822875976562;	395,5;	0,0;	0,0
519,856689453125;	354,5;	0,0;	0,0
519,93115234375;	375,5;	0,0;	0,0
520,0054321289062;	403,25;	0,0;	0,0
520,0797729492188;	533,5;	0,0;	0,0
520,1541748046875;	434,75;	0,0;	0,0
520,2283935546875;	415,25;	0,0;	0,0
520,302734375;	452,75;	0,0;	0,0
520,3770751953125;	445,5;	0,0;	0,0
520,4512939453125;	469,25;	0,0;	0,0
520,525634765625;	420,75;	0,0;	0,0
520,5997924804688;	452,0;	0,0;	0,0
520,674072265625;	694,75;	0,0;	0,0
520,7483520507812;	609,75;	0,0;	0,0
520,822509765625;	379,0;	0,0;	0,0
520,8967895507812;	353,25;	0,0;	0,0
520,970947265625;	338,5;	0,0;	0,0
521,0451049804688;	336,25;	0,0;	0,0
521,1192626953125;	359,75;	0,0;	0,0
521,1934204101562;	364,0;	0,0;	0,0
521,267578125;	383,0;	0,0;	0,0
521,3417358398438;	550,75;	0,0;	0,0
521,415771484375;	614,0;	0,0;	0,0
521,4898681640625;	658,75;	0,0;	0,0
521,5640258789062;	599,0;	0,0;	0,0
521,6380615234375;	557,0;	0,0;	0,0
521,712158203125;	446,75;	0,0;	0,0
521,7862548828125;	379,5;	0,0;	0,0
521,8602294921875;	355,75;	0,0;	0,0
521,9342651367188;	340,5;	0,0;	0,0
522,0082397460938;	340,5;	0,0;	0,0
522,0822143554688;	357,75;	0,0;	0,0
522,1563110351562;	384,75;	0,0;	0,0
522,230224609375;	351,25;	0,0;	0,0
522,30419921875;	403,25;	0,0;	0,0
522,3781127929688;	486,75;	0,0;	0,0
522,4520874023438;	940,75;	0,0;	0,0
522,5260009765625;	2182,25;	0,0;	0,0
522,599853515625;	2234,5;	0,0;	0,0
522,6737670898438;	741,5;	0,0;	0,0
522,7476806640625;	478,25;	0,0;	0,0
522,821533203125;	526,25;	0,0;	0,0
522,8953857421875;	522,5;	0,0;	0,0
522,96923828125;	483,75;	0,0;	0,0
523,0430297851562;	834,75;	0,0;	0,0
523,1168823242188;	1861,0;	0,0;	0,0
523,190673828125;	1863,0;	0,0;	0,0
523,2644653320312;	700,75;	0,0;	0,0
523,3382568359375;	429,75;	0,0;	0,0
523,4119873046875;	419,25;	0,0;	0,0
523,4857788085938;	351,0;	0,0;	0,0
523,5595703125;	366,5;	0,0;	0,0
523,6332397460938;	312,75;	0,0;	0,0
523,7069702148438;	341,75;	0,0;	0,0
523,7807006835938;	353,5;	0,0;	0,0
523,8543701171875;	346,0;	0,0;	0,0
523,927978515625;	321,25;	0,0;	0,0
524,0016479492188;	372,75;	0,0;	0,0
524,0753173828125;	424,25;	0,0;	0,0
524,14892578125;	455,75;	0,0;	0,0
524,2225341796875;	377,5;	0,0;	0,0
524,2962036132812;	342,5;	0,0;	0,0
524,3698120117188;	354,75;	0,0;	0,0
524,443359375;	333,0;	0,0;	0,0
524,5169067382812;	330,75;	0,0;	0,0
524,5905151367188;	333,25;	0,0;	0,0
524,6640014648438;	327,25;	0,0;	0,0
524,7376098632812;	342,25;	0,0;	0,0
524,8110961914062;	355,0;	0,0;	0,0
524,8845825195312;	405,75;	0,0;	0,0
524,9580688476562;	440,0;	0,0;	0,0
525,0315551757812;	327,5;	0,0;	0,0
525,10498046875;	340,0;	0,0;	0,0
525,178466796875;	347,5;	0,0;	0,0
525,2518920898438;	368,25;	0,0;	0,0
525,3253173828125;	369,0;	0,0;	0,0
525,3987426757812;	350,75;	0,0;	0,0
525,47216796875;	339,0;	0,0;	0,0
525,5455322265625;	329,25;	0,0;	0,0
525,618896484375;	327,5;	0,0;	0,0
525,6922607421875;	341,5;	0,0;	0,0
525,765625;	339,25;	0,0;	0,0
525,8389892578125;	365,5;	0,0;	0,0
525,9122924804688;	413,0;	0,0;	0,0
525,9856567382812;	506,75;	0,0;	0,0
526,0588989257812;	624,25;	0,0;	0,0
526,1322021484375;	542,5;	0,0;	0,0
526,2054443359375;	625,25;	0,0;	0,0
526,2786865234375;	591,5;	0,0;	0,0
526,3519897460938;	691,25;	0,0;	0,0
526,4251098632812;	1028,5;	0,0;	0,0
526,4984130859375;	1358,25;	0,0;	0,0
526,5715942382812;	1029,5;	0,0;	0,0
526,644775390625;	890,25;	0,0;	0,0
526,718017578125;	2001,0;	0,0;	0,0
526,7911376953125;	4773,25;	0,0;	0,0
526,8642578125;	4404,0;	0,0;	0,0
526,9374389648438;	1786,75;	0,0;	0,0
527,0105590820312;	584,5;	0,0;	0,0
527,0836791992188;	437,5;	0,0;	0,0
527,15673828125;	535,5;	0,0;	0,0
527,2298583984375;	488,5;	0,0;	0,0
527,3029174804688;	376,25;	0,0;	0,0
527,3760375976562;	391,75;	0,0;	0,0
527,4490356445312;	375,75;	0,0;	0,0
527,5220336914062;	379,25;	0,0;	0,0
527,5950927734375;	355,25;	0,0;	0,0
527,6680908203125;	343,0;	0,0;	0,0
527,7411499023438;	330,25;	0,0;	0,0
527,8140869140625;	366,25;	0,0;	0,0
527,8870849609375;	394,0;	0,0;	0,0
527,9600219726562;	494,0;	0,0;	0,0
528,032958984375;	677,0;	0,0;	0,0
528,1058959960938;	618,0;	0,0;	0,0
528,1788330078125;	742,0;	0,0;	0,0
528,251708984375;	787,0;	0,0;	0,0
528,3245849609375;	499,5;	0,0;	0,0
528,3974609375;	361,0;	0,0;	0,0
528,4703369140625;	319,5;	0,0;	0,0
528,543212890625;	355,0;	0,0;	0,0
528,6160278320312;	323,0;	0,0;	0,0
528,6888427734375;	350,25;	0,0;	0,0
528,7616577148438;	363,5;	0,0;	0,0
528,8344116210938;	348,75;	0,0;	0,0
528,9072265625;	339,0;	0,0;	0,0
528,97998046875;	330,5;	0,0;	0,0
529,0527954101562;	325,5;	0,0;	0,0
529,12548828125;	360,75;	0,0;	0,0
529,1982421875;	370,25;	0,0;	0,0
529,27099609375;	340,0;	0,0;	0,0
529,34375;	362,75;	0,0;	0,0
529,4163208007812;	366,75;	0,0;	0,0
529,4890747070312;	349,75;	0,0;	0,0
529,561767578125;	351,5;	0,0;	0,0
529,6343383789062;	364,5;	0,0;	0,0
529,70703125;	341,75;	0,0;	0,0
529,7796020507812;	347,75;	0,0;	0,0
529,8522338867188;	328,75;	0,0;	0,0
529,9249267578125;	377,25;	0,0;	0,0
529,9974365234375;	456,75;	0,0;	0,0
530,070068359375;	534,25;	0,0;	0,0
530,142578125;	494,25;	0,0;	0,0
530,2151489257812;	357,75;	0,0;	0,0
530,2876586914062;	341,0;	0,0;	0,0
530,3602294921875;	337,25;	0,0;	0,0
530,4326782226562;	325,0;	0,0;	0,0
530,5052490234375;	336,5;	0,0;	0,0
530,57763671875;	358,75;	0,0;	0,0
530,650146484375;	362,5;	0,0;	0,0
530,72265625;	318,0;	0,0;	0,0
530,7950439453125;	355,0;	0,0;	0,0
530,8674926757812;	348,25;	0,0;	0,0
530,93994140625;	359,75;	0,0;	0,0
531,0122680664062;	331,25;	0,0;	0,0
531,084716796875;	331,0;	0,0;	0,0
531,1571044921875;	335,5;	0,0;	0,0
531,2294311523438;	303,5;	0,0;	0,0
531,3018188476562;	361,75;	0,0;	0,0
531,3740844726562;	403,5;	0,0;	0,0
531,4464111328125;	408,5;	0,0;	0,0
531,518798828125;	399,25;	0,0;	0,0
531,591064453125;	385,75;	0,0;	0,0
531,6633911132812;	359,25;	0,0;	0,0
531,7356567382812;	374,75;	0,0;	0,0
531,807861328125;	353,75;	0,0;	0,0
531,880126953125;	372,5;	0,0;	0,0
531,9523315429688;	356,75;	0,0;	0,0
532,0245361328125;	421,0;	0,0;	0,0
532,0968017578125;	439,25;	0,0;	0,0
532,1689453125;	659,25;	0,0;	0,0
532,2411499023438;	1284,25;	0,0;	0,0
532,3133544921875;	1338,25;	0,0;	0,0
532,3854370117188;	694,0;	0,0;	0,0
532,4576416015625;	571,0;	0,0;	0,0
532,5297241210938;	908,0;	0,0;	0,0
532,6018676757812;	2459,5;	0,0;	0,0
532,6739501953125;	3822,5;	0,0;	0,0
532,7459716796875;	1837,5;	0,0;	0,0
532,818115234375;	536,0;	0,0;	0,0
532,8901977539062;	383,0;	0,0;	0,0
532,9622192382812;	372,75;	0,0;	0,0
533,0342407226562;	401,75;	0,0;	0,0
533,1062622070312;	417,25;	0,0;	0,0
533,1782836914062;	400,5;	0,0;	0,0
533,2503051757812;	366,0;	0,0;	0,0
533,3222045898438;	377,25;	0,0;	0,0
533,3942260742188;	356,75;	0,0;	0,0
533,4661865234375;	346,0;	0,0;	0,0
533,5380859375;	341,75;	0,0;	0,0
533,6100463867188;	386,0;	0,0;	0,0
533,6819458007812;	398,0;	0,0;	0,0
533,7538452148438;	459,25;	0,0;	0,0
533,82568359375;	742,5;	0,0;	0,0
533,8976440429688;	795,75;	0,0;	0,0
533,9694213867188;	813,5;	0,0;	0,0
534,0413208007812;	536,5;	0,0;	0,0
534,1130981445312;	393,5;	0,0;	0,0
534,1849975585938;	397,25;	0,0;	0,0
534,2567749023438;	372,25;	0,0;	0,0
534,3284912109375;	346,25;	0,0;	0,0
534,4003295898438;	359,25;	0,0;	0,0
534,4721069335938;	362,25;	0,0;	0,0
534,5438842773438;	352,5;	0,0;	0,0
534,6156005859375;	388,0;	0,0;	0,0
534,6873779296875;	384,5;	0,0;	0,0
534,759033203125;	452,5;	0,0;	0,0
534,830810546875;	478,0;	0,0;	0,0
534,9024047851562;	388,75;	0,0;	0,0
534,97412109375;	384,5;	0,0;	0,0
535,0457763671875;	359,75;	0,0;	0,0
535,1173706054688;	348,25;	0,0;	0,0
535,1890869140625;	399,0;	0,0;	0,0
535,2607421875;	336,75;	0,0;	0,0
535,332275390625;	340,25;	0,0;	0,0
535,4038696289062;	344,25;	0,0;	0,0
535,4754638671875;	364,0;	0,0;	0,0
535,5469970703125;	366,0;	0,0;	0,0
535,6185913085938;	355,75;	0,0;	0,0
535,6901245117188;	353,5;	0,0;	0,0
535,7616577148438;	383,0;	0,0;	0,0
535,8331909179688;	370,0;	0,0;	0,0
535,9046630859375;	370,0;	0,0;	0,0
535,9761962890625;	378,75;	0,0;	0,0
536,047607421875;	398,75;	0,0;	0,0
536,1190185546875;	438,0;	0,0;	0,0
536,1905517578125;	500,5;	0,0;	0,0
536,2619018554688;	614,0;	0,0;	0,0
536,3333740234375;	732,75;	0,0;	0,0
536,4048461914062;	677,75;	0,0;	0,0
536,4761352539062;	624,5;	0,0;	0,0
536,5475463867188;	757,75;	0,0;	0,0
536,6189575195312;	821,0;	0,0;	0,0
536,6902465820312;	654,25;	0,0;	0,0
536,7615966796875;	693,25;	0,0;	0,0
536,8329467773438;	1072,75;	0,0;	0,0
536,9042358398438;	1376,75;	0,0;	0,0
536,9755859375;	2431,5;	0,0;	0,0
537,046875;	2206,0;	0,0;	0,0
537,1181030273438;	729,5;	0,0;	0,0
537,1893920898438;	416,25;	0,0;	0,0
537,2606201171875;	384,25;	0,0;	0,0
537,3319091796875;	374,75;	0,0;	0,0
537,403076171875;	382,0;	0,0;	0,0
537,4743041992188;	386,25;	0,0;	0,0
537,5454711914062;	369,0;	0,0;	0,0
537,6165771484375;	398,0;	0,0;	0,0
537,6878051757812;	378,75;	0,0;	0,0
537,7589721679688;	400,5;	0,0;	0,0
537,830078125;	412,0;	0,0;	0,0
537,9012451171875;	419,0;	0,0;	0,0
537,9723510742188;	466,5;	0,0;	0,0
538,0433959960938;	583,25;	0,0;	0,0
538,1145629882812;	832,75;	0,0;	0,0
538,1856079101562;	1190,0;	0,0;	0,0
538,2566528320312;	797,0;	0,0;	0,0
538,3276977539062;	493,25;	0,0;	0,0
538,398681640625;	387,0;	0,0;	0,0
538,4697265625;	386,25;	0,0;	0,0
538,5408325195312;	379,0;	0,0;	0,0
538,6117553710938;	401,0;	0,0;	0,0
538,6827392578125;	393,5;	0,0;	0,0
538,753662109375;	437,0;	0,0;	0,0
538,8246459960938;	464,5;	0,0;	0,0
538,8956298828125;	390,5;	0,0;	0,0
538,9664916992188;	435,5;	0,0;	0,0
539,0374145507812;	465,75;	0,0;	0,0
539,1083374023438;	532,0;	0,0;	0,0
539,1791381835938;	655,75;	0,0;	0,0
539,2500610351562;	540,25;	0,0;	0,0
539,3209228515625;	441,25;	0,0;	0,0
539,3917236328125;	474,75;	0,0;	0,0
539,4625854492188;	696,0;	0,0;	0,0
539,5333862304688;	1483,75;	0,0;	0,0
539,6041870117188;	1449,5;	0,0;	0,0
539,6749877929688;	702,0;	0,0;	0,0
539,7457275390625;	441,25;	0,0;	0,0
539,8165283203125;	457,5;	0,0;	0,0
539,8872680664062;	517,25;	0,0;	0,0
539,9580078125;	535,75;	0,0;	0,0
540,0286865234375;	508,5;	0,0;	0,0
540,0994873046875;	556,5;	0,0;	0,0
540,170166015625;	799,75;	0,0;	0,0
540,2408447265625;	1227,0;	0,0;	0,0
540,3114624023438;	1287,75;	0,0;	0,0
540,3821411132812;	1632,25;	0,0;	0,0
540,4528198242188;	1890,75;	0,0;	0,0
540,5233764648438;	944,25;	0,0;	0,0
540,5940551757812;	418,5;	0,0;	0,0
540,6646728515625;	431,25;	0,0;	0,0
540,7351684570312;	464,5;	0,0;	0,0
540,8057861328125;	552,25;	0,0;	0,0
540,8763427734375;	658,5;	0,0;	0,0
540,9468383789062;	767,75;	0,0;	0,0
541,0174560546875;	628,5;	0,0;	0,0
541,087890625;	483,25;	0,0;	0,0
541,158447265625;	509,5;	0,0;	0,0
541,2289428710938;	574,75;	0,0;	0,0
541,2994384765625;	867,25;	0,0;	0,0
541,369873046875;	1039,75;	0,0;	0,0
541,4403686523438;	758,5;	0,0;	0,0
541,5107421875;	503,25;	0,0;	0,0
541,5811767578125;	430,75;	0,0;	0,0
541,6515502929688;	412,0;	0,0;	0,0
541,7219848632812;	390,75;	0,0;	0,0
541,7923583984375;	427,25;	0,0;	0,0
541,8627319335938;	417,5;	0,0;	0,0
541,93310546875;	424,25;	0,0;	0,0
542,0034790039062;	439,0;	0,0;	0,0
542,07373046875;	571,25;	0,0;	0,0
542,1441040039062;	766,0;	0,0;	0,0
542,21435546875;	1114,25;	0,0;	0,0
542,28466796875;	1135,0;	0,0;	0,0
542,3549194335938;	686,0;	0,0;	0,0
542,4251708984375;	465,0;	0,0;	0,0
542,4954833984375;	376,5;	0,0;	0,0
542,5657348632812;	416,0;	0,0;	0,0
542,6358642578125;	452,0;	0,0;	0,0
542,7061157226562;	672,5;	0,0;	0,0
542,7763671875;	1513,5;	0,0;	0,0
542,846435546875;	1954,75;	0,0;	0,0
542,9166870117188;	873,5;	0,0;	0,0
542,98681640625;	439,5;	0,0;	0,0
543,0569458007812;	412,75;	0,0;	0,0
543,1271362304688;	419,75;	0,0;	0,0
543,1971435546875;	611,25;	0,0;	0,0
543,267333984375;	1108,25;	0,0;	0,0
543,33740234375;	1143,25;	0,0;	0,0
543,407470703125;	604,25;	0,0;	0,0
543,4774780273438;	379,25;	0,0;	0,0
543,547607421875;	429,5;	0,0;	0,0
543,6175537109375;	368,0;	0,0;	0,0
543,6876220703125;	367,5;	0,0;	0,0
543,7576293945312;	389,5;	0,0;	0,0
543,8275756835938;	395,5;	0,0;	0,0
543,8975830078125;	378,75;	0,0;	0,0
543,9674682617188;	381,5;	0,0;	0,0
544,0374755859375;	401,25;	0,0;	0,0
544,107421875;	405,75;	0,0;	0,0
544,1773071289062;	438,75;	0,0;	0,0
544,2472534179688;	486,75;	0,0;	0,0
544,317138671875;	631,25;	0,0;	0,0
544,386962890625;	703,0;	0,0;	0,0
544,4568481445312;	950,75;	0,0;	0,0
544,5266723632812;	1784,75;	0,0;	0,0
544,5965576171875;	1451,75;	0,0;	0,0
544,6663818359375;	564,5;	0,0;	0,0
544,7361450195312;	399,0;	0,0;	0,0
544,8060302734375;	386,25;	0,0;	0,0
544,8757934570312;	387,25;	0,0;	0,0
544,945556640625;	412,75;	0,0;	0,0
545,0153198242188;	387,75;	0,0;	0,0
545,0850830078125;	416,0;	0,0;	0,0
545,15478515625;	445,5;	0,0;	0,0
545,2244873046875;	489,0;	0,0;	0,0
545,294189453125;	748,75;	0,0;	0,0
545,3639526367188;	1270,25;	0,0;	0,0
545,43359375;	1554,5;	0,0;	0,0
545,5032348632812;	825,75;	0,0;	0,0
545,5729370117188;	453,0;	0,0;	0,0
545,6424560546875;	387,75;	0,0;	0,0
545,712158203125;	396,5;	0,0;	0,0
545,78173828125;	385,25;	0,0;	0,0
545,851318359375;	378,25;	0,0;	0,0
545,9208984375;	412,0;	0,0;	0,0
545,9905395507812;	437,75;	0,0;	0,0
546,0599975585938;	494,25;	0,0;	0,0
546,1295776367188;	606,0;	0,0;	0,0
546,1990966796875;	622,5;	0,0;	0,0
546,2686157226562;	523,0;	0,0;	0,0
546,338134765625;	413,25;	0,0;	0,0
546,4075317382812;	431,0;	0,0;	0,0
546,4771118164062;	450,0;	0,0;	0,0
546,5465698242188;	414,25;	0,0;	0,0
546,615966796875;	416,5;	0,0;	0,0
546,6853637695312;	408,5;	0,0;	0,0
546,7548217773438;	366,0;	0,0;	0,0
546,82421875;	421,0;	0,0;	0,0
546,8936157226562;	402,0;	0,0;	0,0
546,9630126953125;	420,25;	0,0;	0,0
547,0323486328125;	407,75;	0,0;	0,0
547,1016845703125;	414,5;	0,0;	0,0
547,1710205078125;	440,5;	0,0;	0,0
547,2403564453125;	470,5;	0,0;	0,0
547,3096923828125;	455,5;	0,0;	0,0
547,37890625;	443,25;	0,0;	0,0
547,4482421875;	577,25;	0,0;	0,0
547,5175170898438;	650,25;	0,0;	0,0
547,586669921875;	506,75;	0,0;	0,0
547,6559448242188;	451,75;	0,0;	0,0
547,7252197265625;	419,5;	0,0;	0,0
547,7943725585938;	409,5;	0,0;	0,0
547,8636474609375;	413,5;	0,0;	0,0
547,9327392578125;	462,25;	0,0;	0,0
548,001953125;	495,75;	0,0;	0,0
548,0711059570312;	440,75;	0,0;	0,0
548,1401977539062;	424,25;	0,0;	0,0
548,2093505859375;	410,25;	0,0;	0,0
548,2784423828125;	439,5;	0,0;	0,0
548,3475341796875;	397,25;	0,0;	0,0
548,4166259765625;	424,25;	0,0;	0,0
548,4857177734375;	436,5;	0,0;	0,0
548,5547485351562;	463,0;	0,0;	0,0
548,6238403320312;	476,25;	0,0;	0,0
548,6928100585938;	505,0;	0,0;	0,0
548,7619018554688;	459,5;	0,0;	0,0
548,8309326171875;	419,75;	0,0;	0,0
548,8998413085938;	433,0;	0,0;	0,0
548,9688720703125;	446,0;	0,0;	0,0
549,0377807617188;	452,0;	0,0;	0,0
549,1067504882812;	420,25;	0,0;	0,0
549,1756591796875;	397,25;	0,0;	0,0
549,2445678710938;	408,0;	0,0;	0,0
549,3135375976562;	443,5;	0,0;	0,0
549,3824462890625;	407,5;	0,0;	0,0
549,4512939453125;	426,0;	0,0;	0,0
549,5201416015625;	487,5;	0,0;	0,0
549,5890502929688;	636,5;	0,0;	0,0
549,6578369140625;	604,75;	0,0;	0,0
549,7266845703125;	449,25;	0,0;	0,0
549,7954711914062;	448,5;	0,0;	0,0
549,8642578125;	469,75;	0,0;	0,0
549,93310546875;	514,75;	0,0;	0,0
550,0017700195312;	580,75;	0,0;	0,0
550,070556640625;	532,5;	0,0;	0,0
550,1393432617188;	484,75;	0,0;	0,0
550,2080078125;	472,25;	0,0;	0,0
550,2767944335938;	437,25;	0,0;	0,0
550,345458984375;	474,25;	0,0;	0,0
550,4141235351562;	537,75;	0,0;	0,0
550,4828491210938;	672,25;	0,0;	0,0
550,5513916015625;	691,0;	0,0;	0,0
550,6201171875;	567,5;	0,0;	0,0
550,688720703125;	516,5;	0,0;	0,0
550,75732421875;	454,75;	0,0;	0,0
550,8259887695312;	482,0;	0,0;	0,0
550,89453125;	492,0;	0,0;	0,0
550,9630737304688;	508,75;	0,0;	0,0
551,0316772460938;	546,75;	0,0;	0,0
551,1002197265625;	528,75;	0,0;	0,0
551,1687622070312;	507,0;	0,0;	0,0
551,2373046875;	507,0;	0,0;	0,0
551,3057250976562;	456,75;	0,0;	0,0
551,374267578125;	505,75;	0,0;	0,0
551,4427490234375;	491,25;	0,0;	0,0
551,5111694335938;	442,5;	0,0;	0,0
551,5796508789062;	503,5;	0,0;	0,0
551,6480102539062;	488,75;	0,0;	0,0
551,7164916992188;	500,25;	0,0;	0,0
551,7849731445312;	486,0;	0,0;	0,0
551,8533325195312;	516,25;	0,0;	0,0
551,9216918945312;	476,25;	0,0;	0,0
551,9901123046875;	506,75;	0,0;	0,0
552,0584106445312;	506,5;	0,0;	0,0
552,1267700195312;	446,5;	0,0;	0,0
552,195068359375;	505,0;	0,0;	0,0
552,2633666992188;	504,0;	0,0;	0,0
552,3316650390625;	476,25;	0,0;	0,0
552,39990234375;	516,25;	0,0;	0,0
552,46826171875;	470,75;	0,0;	0,0
552,5364990234375;	447,0;	0,0;	0,0
552,6046752929688;	507,0;	0,0;	0,0
552,6729736328125;	482,0;	0,0;	0,0
552,7412109375;	496,0;	0,0;	0,0
552,809326171875;	465,75;	0,0;	0,0
552,8775634765625;	495,0;	0,0;	0,0
552,9457397460938;	482,5;	0,0;	0,0
553,0138549804688;	521,5;	0,0;	0,0
553,08203125;	517,5;	0,0;	0,0
553,150146484375;	554,25;	0,0;	0,0
553,2182006835938;	493,0;	0,0;	0,0
553,286376953125;	557,25;	0,0;	0,0
553,3544311523438;	695,25;	0,0;	0,0
553,4225463867188;	777,75;	0,0;	0,0
553,4906005859375;	640,0;	0,0;	0,0
553,55859375;	530,0;	0,0;	0,0
553,626708984375;	550,0;	0,0;	0,0
553,6947021484375;	526,0;	0,0;	0,0
553,7626953125;	553,25;	0,0;	0,0
553,8306884765625;	545,0;	0,0;	0,0
553,8986206054688;	534,5;	0,0;	0,0
553,9666137695312;	523,0;	0,0;	0,0
554,0346069335938;	545,5;	0,0;	0,0
554,1024780273438;	560,5;	0,0;	0,0
554,1704711914062;	609,0;	0,0;	0,0
554,2384033203125;	586,75;	0,0;	0,0
554,3062133789062;	583,0;	0,0;	0,0
554,3740844726562;	584,75;	0,0;	0,0
554,4419555664062;	530,25;	0,0;	0,0
554,509765625;	549,5;	0,0;	0,0
554,57763671875;	567,25;	0,0;	0,0
554,6454467773438;	535,0;	0,0;	0,0
554,7133178710938;	542,25;	0,0;	0,0
554,7810668945312;	521,0;	0,0;	0,0
554,8488159179688;	516,75;	0,0;	0,0
554,9166259765625;	536,0;	0,0;	0,0
554,9843139648438;	534,5;	0,0;	0,0
555,0521240234375;	537,5;	0,0;	0,0
555,119873046875;	495,0;	0,0;	0,0
555,1875;	526,75;	0,0;	0,0
555,2552490234375;	553,5;	0,0;	0,0
555,3229370117188;	583,75;	0,0;	0,0
555,390625;	580,25;	0,0;	0,0
555,458251953125;	547,5;	0,0;	0,0
555,52587890625;	514,25;	0,0;	0,0
555,593505859375;	487,75;	0,0;	0,0
555,6611328125;	528,75;	0,0;	0,0
555,7286987304688;	485,5;	0,0;	0,0
555,7963256835938;	512,25;	0,0;	0,0
555,8638916015625;	519,0;	0,0;	0,0
555,931396484375;	491,25;	0,0;	0,0
555,9989624023438;	507,25;	0,0;	0,0
556,0665283203125;	534,25;	0,0;	0,0
556,1339721679688;	513,5;	0,0;	0,0
556,2014770507812;	586,0;	0,0;	0,0
556,26904296875;	567,5;	0,0;	0,0
556,3364868164062;	531,0;	0,0;	0,0
556,4039306640625;	579,5;	0,0;	0,0
556,4713134765625;	551,25;	0,0;	0,0
556,538818359375;	505,5;	0,0;	0,0
556,6062622070312;	504,75;	0,0;	0,0
556,673583984375;	496,5;	0,0;	0,0
556,7410278320312;	619,75;	0,0;	0,0
556,8084716796875;	887,0;	0,0;	0,0
556,875732421875;	770,25;	0,0;	0,0
556,943115234375;	572,75;	0,0;	0,0
557,010498046875;	567,25;	0,0;	0,0
557,0776977539062;	820,25;	0,0;	0,0
557,1450805664062;	1169,5;	0,0;	0,0
557,2123413085938;	928,0;	0,0;	0,0
557,2796020507812;	563,25;	0,0;	0,0
557,346923828125;	544,0;	0,0;	0,0
557,4141235351562;	554,0;	0,0;	0,0
557,4813232421875;	652,75;	0,0;	0,0
557,5485229492188;	532,5;	0,0;	0,0
557,6157836914062;	437,0;	0,0;	0,0
557,6829833984375;	430,5;	0,0;	0,0
557,7501831054688;	410,0;	0,0;	0,0
557,8173217773438;	452,25;	0,0;	0,0
557,8844604492188;	465,25;	0,0;	0,0
557,9515991210938;	443,0;	0,0;	0,0
558,0187377929688;	576,25;	0,0;	0,0
558,0858764648438;	591,5;	0,0;	0,0
558,1528930664062;	531,0;	0,0;	0,0
558,219970703125;	465,5;	0,0;	0,0
558,2869873046875;	450,0;	0,0;	0,0
558,3540649414062;	527,0;	0,0;	0,0
558,421142578125;	745,75;	0,0;	0,0
558,4881591796875;	1245,5;	0,0;	0,0
558,55517578125;	1561,75;	0,0;	0,0
558,6221923828125;	1178,5;	0,0;	0,0
558,6891479492188;	1332,5;	0,0;	0,0
558,7561645507812;	1449,75;	0,0;	0,0
558,8230590820312;	929,25;	0,0;	0,0
558,8900146484375;	682,75;	0,0;	0,0
558,9569702148438;	528,25;	0,0;	0,0
559,0238037109375;	465,25;	0,0;	0,0
559,0906982421875;	483,75;	0,0;	0,0
559,1576538085938;	540,5;	0,0;	0,0
559,2244262695312;	712,25;	0,0;	0,0
559,2913208007812;	1074,5;	0,0;	0,0
559,358154296875;	880,0;	0,0;	0,0
559,4249877929688;	602,75;	0,0;	0,0
559,4918212890625;	483,75;	0,0;	0,0
559,5586547851562;	507,0;	0,0;	0,0
559,6253662109375;	632,75;	0,0;	0,0
559,692138671875;	957,0;	0,0;	0,0
559,7589111328125;	710,25;	0,0;	0,0
559,8256225585938;	528,75;	0,0;	0,0
559,8923950195312;	520,5;	0,0;	0,0
559,9590454101562;	603,25;	0,0;	0,0
560,0257568359375;	618,0;	0,0;	0,0
560,0924682617188;	710,5;	0,0;	0,0
560,1591186523438;	815,75;	0,0;	0,0
560,225830078125;	608,75;	0,0;	0,0
560,29248046875;	454,0;	0,0;	0,0
560,3590698242188;	416,5;	0,0;	0,0
560,4256591796875;	428,25;	0,0;	0,0
560,4921875;	412,75;	0,0;	0,0
560,5587768554688;	410,75;	0,0;	0,0
560,6254272460938;	407,0;	0,0;	0,0
560,6919555664062;	445,75;	0,0;	0,0
560,7584838867188;	409,5;	0,0;	0,0
560,824951171875;	417,25;	0,0;	0,0
560,8914794921875;	418,25;	0,0;	0,0
560,9580688476562;	433,5;	0,0;	0,0
561,0245361328125;	442,75;	0,0;	0,0
561,0909423828125;	450,75;	0,0;	0,0
561,157470703125;	448,0;	0,0;	0,0
561,2238159179688;	528,5;	0,0;	0,0
561,2903442382812;	710,75;	0,0;	0,0
561,3567504882812;	1279,25;	0,0;	0,0
561,4231567382812;	2032,75;	0,0;	0,0
561,489501953125;	1534,0;	0,0;	0,0
561,5558471679688;	684,75;	0,0;	0,0
561,6222534179688;	510,25;	0,0;	0,0
561,6885986328125;	486,0;	0,0;	0,0
561,7548828125;	470,25;	0,0;	0,0
561,8211669921875;	481,5;	0,0;	0,0
561,8875122070312;	439,25;	0,0;	0,0
561,9537963867188;	473,0;	0,0;	0,0
562,0200805664062;	464,5;	0,0;	0,0
562,0863647460938;	475,5;	0,0;	0,0
562,152587890625;	484,75;	0,0;	0,0
562,2188110351562;	537,5;	0,0;	0,0
562,2849731445312;	652,5;	0,0;	0,0
562,3511962890625;	688,25;	0,0;	0,0
562,4174194335938;	560,75;	0,0;	0,0
562,4835205078125;	467,25;	0,0;	0,0
562,5496826171875;	453,25;	0,0;	0,0
562,6159057617188;	461,25;	0,0;	0,0
562,6820068359375;	467,5;	0,0;	0,0
562,748046875;	448,75;	0,0;	0,0
562,814208984375;	454,5;	0,0;	0,0
562,8803100585938;	452,5;	0,0;	0,0
562,9463500976562;	435,0;	0,0;	0,0
563,0123901367188;	475,25;	0,0;	0,0
563,0784301757812;	443,25;	0,0;	0,0
563,14453125;	434,75;	0,0;	0,0
563,21044921875;	490,25;	0,0;	0,0
563,2764892578125;	482,0;	0,0;	0,0
563,3424682617188;	468,5;	0,0;	0,0
563,408447265625;	467,5;	0,0;	0,0
563,4744262695312;	489,75;	0,0;	0,0
563,5404052734375;	478,0;	0,0;	0,0
563,6062622070312;	489,0;	0,0;	0,0
563,6722412109375;	549,75;	0,0;	0,0
563,7380981445312;	502,75;	0,0;	0,0
563,8040161132812;	474,25;	0,0;	0,0
563,869873046875;	474,5;	0,0;	0,0
563,9356689453125;	457,0;	0,0;	0,0
564,0015258789062;	488,75;	0,0;	0,0
564,0673217773438;	461,25;	0,0;	0,0
564,1331787109375;	472,0;	0,0;	0,0
564,1990356445312;	453,25;	0,0;	0,0
564,2647705078125;	481,0;	0,0;	0,0
564,3305053710938;	452,75;	0,0;	0,0
564,3963012695312;	456,0;	0,0;	0,0
564,4620361328125;	470,0;	0,0;	0,0
564,5277709960938;	454,0;	0,0;	0,0
564,593505859375;	502,0;	0,0;	0,0
564,6591796875;	474,75;	0,0;	0,0
564,7249145507812;	446,5;	0,0;	0,0
564,7904663085938;	461,5;	0,0;	0,0
564,856201171875;	483,0;	0,0;	0,0
564,9218139648438;	527,0;	0,0;	0,0
564,9874877929688;	483,25;	0,0;	0,0
565,0530395507812;	450,25;	0,0;	0,0
565,1187133789062;	487,75;	0,0;	0,0
565,1842651367188;	442,0;	0,0;	0,0
565,2498168945312;	480,5;	0,0;	0,0
565,3153686523438;	499,5;	0,0;	0,0
565,3809204101562;	527,0;	0,0;	0,0
565,4464721679688;	513,25;	0,0;	0,0
565,511962890625;	519,0;	0,0;	0,0
565,5774536132812;	472,75;	0,0;	0,0
565,6429443359375;	564,25;	0,0;	0,0
565,7083740234375;	696,5;	0,0;	0,0
565,7738647460938;	715,0;	0,0;	0,0
565,83935546875;	554,5;	0,0;	0,0
565,9047241210938;	473,75;	0,0;	0,0
565,9701538085938;	515,0;	0,0;	0,0
566,0355834960938;	495,75;	0,0;	0,0
566,1009521484375;	616,0;	0,0;	0,0
566,1663208007812;	587,25;	0,0;	0,0
566,2316284179688;	521,25;	0,0;	0,0
566,2969970703125;	501,0;	0,0;	0,0
566,3623657226562;	486,25;	0,0;	0,0
566,4276123046875;	460,0;	0,0;	0,0
566,4929809570312;	479,5;	0,0;	0,0
566,5582275390625;	500,0;	0,0;	0,0
566,6234741210938;	524,5;	0,0;	0,0
566,688720703125;	509,0;	0,0;	0,0
566,7540283203125;	485,5;	0,0;	0,0
566,8192138671875;	475,75;	0,0;	0,0
566,8843994140625;	491,0;	0,0;	0,0
566,9495849609375;	453,25;	0,0;	0,0
567,0147705078125;	491,0;	0,0;	0,0
567,0799560546875;	490,75;	0,0;	0,0
567,1451416015625;	474,25;	0,0;	0,0
567,2102661132812;	485,0;	0,0;	0,0
567,2753295898438;	445,0;	0,0;	0,0
567,3405151367188;	492,5;	0,0;	0,0
567,4055786132812;	497,75;	0,0;	0,0
567,4706420898438;	460,5;	0,0;	0,0
567,5357055664062;	461,0;	0,0;	0,0
567,600830078125;	464,5;	0,0;	0,0
567,6658325195312;	517,25;	0,0;	0,0
567,7308959960938;	502,75;	0,0;	0,0
567,7958374023438;	534,75;	0,0;	0,0
567,86083984375;	531,5;	0,0;	0,0
567,9258422851562;	550,25;	0,0;	0,0
567,9907836914062;	562,5;	0,0;	0,0
568,0557250976562;	675,25;	0,0;	0,0
568,1207275390625;	855,25;	0,0;	0,0
568,185546875;	841,25;	0,0;	0,0
568,25048828125;	702,5;	0,0;	0,0
568,3153686523438;	648,75;	0,0;	0,0
568,3802490234375;	663,0;	0,0;	0,0
568,4451293945312;	670,0;	0,0;	0,0
568,5100708007812;	749,0;	0,0;	0,0
568,5748291015625;	792,75;	0,0;	0,0
568,6396484375;	990,75;	0,0;	0,0
568,7044677734375;	1235,0;	0,0;	0,0
568,769287109375;	1131,0;	0,0;	0,0
568,8340454101562;	905,0;	0,0;	0,0
568,8987426757812;	733,25;	0,0;	0,0
568,9635009765625;	644,25;	0,0;	0,0
569,0282592773438;	634,5;	0,0;	0,0
569,0929565429688;	567,0;	0,0;	0,0
569,15771484375;	512,0;	0,0;	0,0
569,222412109375;	554,5;	0,0;	0,0
569,2870483398438;	510,0;	0,0;	0,0
569,3517456054688;	512,25;	0,0;	0,0
569,4163818359375;	525,5;	0,0;	0,0
569,4810180664062;	496,0;	0,0;	0,0
569,5455932617188;	467,75;	0,0;	0,0
569,6102294921875;	470,0;	0,0;	0,0
569,6748657226562;	473,0;	0,0;	0,0
569,7393188476562;	464,25;	0,0;	0,0
569,803955078125;	492,5;	0,0;	0,0
569,8685302734375;	464,25;	0,0;	0,0
569,9330444335938;	536,0;	0,0;	0,0
569,9974975585938;	535,0;	0,0;	0,0
570,0620727539062;	530,0;	0,0;	0,0
570,1265258789062;	507,75;	0,0;	0,0
570,1910400390625;	462,0;	0,0;	0,0
570,2554931640625;	435,0;	0,0;	0,0
570,3198852539062;	487,5;	0,0;	0,0
570,3843383789062;	508,5;	0,0;	0,0
570,44873046875;	519,25;	0,0;	0,0
570,51318359375;	512,5;	0,0;	0,0
570,5775756835938;	504,5;	0,0;	0,0
570,6419067382812;	449,75;	0,0;	0,0
570,706298828125;	461,75;	0,0;	0,0
570,7706298828125;	577,5;	0,0;	0,0
570,8349609375;	585,75;	0,0;	0,0
570,8992919921875;	494,75;	0,0;	0,0
570,963623046875;	482,25;	0,0;	0,0
571,02783203125;	436,25;	0,0;	0,0
571,0921020507812;	469,75;	0,0;	0,0
571,1563110351562;	451,25;	0,0;	0,0
571,2206420898438;	482,25;	0,0;	0,0
571,2848510742188;	477,5;	0,0;	0,0
571,3489990234375;	466,5;	0,0;	0,0
571,4132080078125;	459,25;	0,0;	0,0
571,4774169921875;	467,5;	0,0;	0,0
571,5415649414062;	468,0;	0,0;	0,0
571,6057739257812;	495,75;	0,0;	0,0
571,6698608398438;	439,75;	0,0;	0,0
571,7340087890625;	479,5;	0,0;	0,0
571,7981567382812;	431,25;	0,0;	0,0
571,8621826171875;	475,5;	0,0;	0,0
571,92626953125;	449,75;	0,0;	0,0
571,9904174804688;	439,75;	0,0;	0,0
572,0543823242188;	452,25;	0,0;	0,0
572,1184692382812;	477,5;	0,0;	0,0
572,1824951171875;	453,75;	0,0;	0,0
572,2464599609375;	424,75;	0,0;	0,0
572,3104858398438;	441,75;	0,0;	0,0
572,3744506835938;	430,0;	0,0;	0,0
572,4384155273438;	445,25;	0,0;	0,0
572,5023803710938;	439,75;	0,0;	0,0
572,5662841796875;	447,75;	0,0;	0,0
572,6301879882812;	457,75;	0,0;	0,0
572,6941528320312;	442,5;	0,0;	0,0
572,7579956054688;	448,0;	0,0;	0,0
572,8218383789062;	465,75;	0,0;	0,0
572,8856811523438;	418,75;	0,0;	0,0
572,9495849609375;	480,25;	0,0;	0,0
573,013427734375;	449,25;	0,0;	0,0
573,0772705078125;	457,5;	0,0;	0,0
573,1410522460938;	462,25;	0,0;	0,0
573,204833984375;	451,25;	0,0;	0,0
573,2686157226562;	411,5;	0,0;	0,0
573,3323364257812;	443,5;	0,0;	0,0
573,3961181640625;	464,25;	0,0;	0,0
573,4598388671875;	412,0;	0,0;	0,0
573,5235595703125;	453,5;	0,0;	0,0
573,5872192382812;	459,75;	0,0;	0,0
573,6509399414062;	456,25;	0,0;	0,0
573,714599609375;	425,5;	0,0;	0,0
573,7781982421875;	435,0;	0,0;	0,0
573,8418579101562;	421,25;	0,0;	0,0
573,905517578125;	445,75;	0,0;	0,0
573,9691162109375;	427,0;	0,0;	0,0
574,0327758789062;	417,25;	0,0;	0,0
574,0963745117188;	458,5;	0,0;	0,0
574,1598510742188;	471,0;	0,0;	0,0
574,2234497070312;	431,75;	0,0;	0,0
574,2869873046875;	431,5;	0,0;	0,0
574,3504638671875;	426,5;	0,0;	0,0
574,4140014648438;	425,25;	0,0;	0,0
574,4775390625;	449,5;	0,0;	0,0
574,5409545898438;	421,75;	0,0;	0,0
574,6044921875;	417,75;	0,0;	0,0
574,6679077148438;	430,75;	0,0;	0,0
574,7313232421875;	454,0;	0,0;	0,0
574,7947998046875;	428,75;	0,0;	0,0
574,858154296875;	453,25;	0,0;	0,0
574,9215698242188;	445,75;	0,0;	0,0
574,98486328125;	459,25;	0,0;	0,0
575,04833984375;	479,5;	0,0;	0,0
575,1116943359375;	508,75;	0,0;	0,0
575,1749877929688;	526,0;	0,0;	0,0
575,2383422851562;	524,75;	0,0;	0,0
575,3016357421875;	457,5;	0,0;	0,0
575,3648681640625;	440,75;	0,0;	0,0
575,42822265625;	441,75;	0,0;	0,0
575,491455078125;	455,5;	0,0;	0,0
575,5546264648438;	453,75;	0,0;	0,0
575,617919921875;	441,25;	0,0;	0,0
575,6810913085938;	441,75;	0,0;	0,0
575,7442626953125;	433,25;	0,0;	0,0
575,8074951171875;	444,25;	0,0;	0,0
575,8706665039062;	447,75;	0,0;	0,0
575,933837890625;	456,5;	0,0;	0,0
575,9969482421875;	459,25;	0,0;	0,0
576,06005859375;	475,5;	0,0;	0,0
576,1232299804688;	568,0;	0,0;	0,0
576,186279296875;	628,75;	0,0;	0,0
576,2493896484375;	499,25;	0,0;	0,0
576,3125;	449,0;	0,0;	0,0
576,37548828125;	456,25;	0,0;	0,0
576,4385375976562;	466,0;	0,0;	0,0
576,5015869140625;	398,75;	0,0;	0,0
576,5645751953125;	429,5;	0,0;	0,0
576,6275634765625;	428,5;	0,0;	0,0
576,6904907226562;	407,5;	0,0;	0,0
576,7534790039062;	437,0;	0,0;	0,0
576,8164672851562;	429,75;	0,0;	0,0
576,87939453125;	425,75;	0,0;	0,0
576,9423217773438;	419,75;	0,0;	0,0
577,0052490234375;	426,25;	0,0;	0,0
577,068115234375;	427,5;	0,0;	0,0
577,1309814453125;	443,25;	0,0;	0,0
577,1939086914062;	412,75;	0,0;	0,0
577,2567138671875;	428,75;	0,0;	0,0
577,3195190429688;	421,0;	0,0;	0,0
577,38232421875;	456,75;	0,0;	0,0
577,4451293945312;	439,5;	0,0;	0,0
577,5079956054688;	444,25;	0,0;	0,0
577,5706787109375;	416,25;	0,0;	0,0
577,6334838867188;	443,0;	0,0;	0,0
577,6962890625;	443,75;	0,0;	0,0
577,7589721679688;	423,25;	0,0;	0,0
577,8216552734375;	410,5;	0,0;	0,0
577,8843994140625;	443,0;	0,0;	0,0
577,947021484375;	456,0;	0,0;	0,0
578,009765625;	475,25;	0,0;	0,0
578,0723876953125;	517,5;	0,0;	0,0
578,135009765625;	495,25;	0,0;	0,0
578,1976928710938;	507,5;	0,0;	0,0
578,2601928710938;	434,5;	0,0;	0,0
578,3228149414062;	469,0;	0,0;	0,0
578,3854370117188;	440,25;	0,0;	0,0
578,447998046875;	444,5;	0,0;	0,0
578,5105590820312;	411,25;	0,0;	0,0
578,5731201171875;	444,25;	0,0;	0,0
578,6356201171875;	437,5;	0,0;	0,0
578,6981811523438;	477,5;	0,0;	0,0
578,7605590820312;	463,75;	0,0;	0,0
578,8231201171875;	488,5;	0,0;	0,0
578,8855590820312;	521,5;	0,0;	0,0
578,9479370117188;	489,25;	0,0;	0,0
579,0104370117188;	496,25;	0,0;	0,0
579,0728149414062;	464,25;	0,0;	0,0
579,1351928710938;	445,75;	0,0;	0,0
579,1976318359375;	477,25;	0,0;	0,0
579,260009765625;	482,0;	0,0;	0,0
579,3223266601562;	472,5;	0,0;	0,0
579,3847045898438;	454,0;	0,0;	0,0
579,447021484375;	470,25;	0,0;	0,0
579,5093383789062;	445,5;	0,0;	0,0
579,5716552734375;	463,0;	0,0;	0,0
579,6339111328125;	454,75;	0,0;	0,0
579,6962280273438;	481,5;	0,0;	0,0
579,7583618164062;	455,0;	0,0;	0,0
579,8206787109375;	474,75;	0,0;	0,0
579,8829345703125;	455,5;	0,0;	0,0
579,9451293945312;	478,75;	0,0;	0,0
580,0072631835938;	529,75;	0,0;	0,0
580,0695190429688;	504,0;	0,0;	0,0
580,131591796875;	507,25;	0,0;	0,0
580,1937866210938;	470,75;	0,0;	0,0
580,2559204101562;	499,75;	0,0;	0,0
580,3180541992188;	449,25;	0,0;	0,0
580,3801879882812;	487,0;	0,0;	0,0
580,4421997070312;	472,0;	0,0;	0,0
580,5043334960938;	482,25;	0,0;	0,0
580,56640625;	475,75;	0,0;	0,0
580,62841796875;	529,5;	0,0;	0,0
580,6904907226562;	467,5;	0,0;	0,0
580,7525024414062;	488,5;	0,0;	0,0
580,814453125;	479,5;	0,0;	0,0
580,87646484375;	444,75;	0,0;	0,0
580,9384765625;	449,75;	0,0;	0,0
581,0003662109375;	465,25;	0,0;	0,0
581,0623779296875;	472,75;	0,0;	0,0
581,124267578125;	489,75;	0,0;	0,0
581,1861572265625;	439,75;	0,0;	0,0
581,2481079101562;	483,75;	0,0;	0,0
581,3099365234375;	482,0;	0,0;	0,0
581,371826171875;	494,75;	0,0;	0,0
581,4336547851562;	501,25;	0,0;	0,0
581,4954833984375;	491,25;	0,0;	0,0
581,557373046875;	462,75;	0,0;	0,0
581,619140625;	462,0;	0,0;	0,0
581,680908203125;	477,75;	0,0;	0,0
581,7427368164062;	443,0;	0,0;	0,0
581,804443359375;	493,0;	0,0;	0,0
581,8662109375;	515,75;	0,0;	0,0
581,9279174804688;	546,0;	0,0;	0,0
581,9896850585938;	499,25;	0,0;	0,0
582,0513916015625;	492,0;	0,0;	0,0
582,113037109375;	502,5;	0,0;	0,0
582,1747436523438;	499,75;	0,0;	0,0
582,2363891601562;	488,5;	0,0;	0,0
582,2979736328125;	480,5;	0,0;	0,0
582,359619140625;	482,0;	0,0;	0,0
582,4212646484375;	477,75;	0,0;	0,0
582,4828491210938;	499,75;	0,0;	0,0
582,5444946289062;	526,25;	0,0;	0,0
582,6060180664062;	502,75;	0,0;	0,0
582,6675415039062;	513,0;	0,0;	0,0
582,7290649414062;	544,75;	0,0;	0,0
582,7905883789062;	495,25;	0,0;	0,0
582,8521118164062;	453,5;	0,0;	0,0
582,9136352539062;	511,75;	0,0;	0,0
582,9750366210938;	504,5;	0,0;	0,0
583,0365600585938;	521,25;	0,0;	0,0
583,0980224609375;	529,0;	0,0;	0,0
583,159423828125;	521,75;	0,0;	0,0
583,2208862304688;	510,75;	0,0;	0,0
583,2822875976562;	513,75;	0,0;	0,0
583,3436279296875;	489,5;	0,0;	0,0
583,405029296875;	492,0;	0,0;	0,0
583,46630859375;	481,25;	0,0;	0,0
583,5277099609375;	536,25;	0,0;	0,0
583,5890502929688;	481,25;	0,0;	0,0
583,6503295898438;	518,75;	0,0;	0,0
583,711669921875;	491,0;	0,0;	0,0
583,77294921875;	515,5;	0,0;	0,0
583,8341674804688;	525,5;	0,0;	0,0
583,8955078125;	484,5;	0,0;	0,0
583,9567260742188;	482,75;	0,0;	0,0
584,0179443359375;	467,0;	0,0;	0,0
584,0791015625;	519,25;	0,0;	0,0
584,1403198242188;	477,25;	0,0;	0,0
584,2014770507812;	521,25;	0,0;	0,0
584,2626342773438;	511,75;	0,0;	0,0
584,3237915039062;	530,0;	0,0;	0,0
584,3849487304688;	521,0;	0,0;	0,0
584,4459838867188;	509,0;	0,0;	0,0
584,5071411132812;	488,5;	0,0;	0,0
584,5682373046875;	504,25;	0,0;	0,0
584,6293334960938;	508,0;	0,0;	0,0
584,6903076171875;	506,5;	0,0;	0,0
584,7514038085938;	510,0;	0,0;	0,0
584,8123779296875;	530,25;	0,0;	0,0
584,8734130859375;	514,0;	0,0;	0,0
584,9344482421875;	517,5;	0,0;	0,0
584,9954223632812;	519,25;	0,0;	0,0
585,056396484375;	532,5;	0,0;	0,0
585,1173095703125;	538,0;	0,0;	0,0
585,1782836914062;	547,5;	0,0;	0,0
585,2391967773438;	556,25;	0,0;	0,0
585,3001098632812;	532,5;	0,0;	0,0
585,3609619140625;	553,25;	0,0;	0,0
585,4219360351562;	542,0;	0,0;	0,0
585,4827270507812;	583,25;	0,0;	0,0
585,5435791015625;	725,5;	0,0;	0,0
585,6044311523438;	913,25;	0,0;	0,0
585,6652221679688;	799,5;	0,0;	0,0
585,72607421875;	684,5;	0,0;	0,0
585,7868041992188;	622,0;	0,0;	0,0
585,8475952148438;	581,25;	0,0;	0,0
585,9083251953125;	635,5;	0,0;	0,0
585,9690551757812;	590,75;	0,0;	0,0
586,02978515625;	618,75;	0,0;	0,0
586,090576171875;	638,5;	0,0;	0,0
586,1511840820312;	636,5;	0,0;	0,0
586,2118530273438;	560,25;	0,0;	0,0
586,2725830078125;	557,25;	0,0;	0,0
586,3331909179688;	606,75;	0,0;	0,0
586,393798828125;	541,25;	0,0;	0,0
586,4544067382812;	573,25;	0,0;	0,0
586,5150146484375;	563,0;	0,0;	0,0
586,57568359375;	578,0;	0,0;	0,0
586,6361694335938;	619,25;	0,0;	0,0
586,6967163085938;	604,0;	0,0;	0,0
586,7573852539062;	571,5;	0,0;	0,0
586,8178100585938;	641,0;	0,0;	0,0
586,8783569335938;	613,0;	0,0;	0,0
586,9388427734375;	624,5;	0,0;	0,0
586,9993896484375;	648,0;	0,0;	0,0
587,0598754882812;	703,75;	0,0;	0,0
587,1202392578125;	668,5;	0,0;	0,0
587,1807250976562;	655,0;	0,0;	0,0
587,2410888671875;	709,75;	0,0;	0,0
587,301513671875;	712,0;	0,0;	0,0
587,3619384765625;	704,25;	0,0;	0,0
587,4223022460938;	726,75;	0,0;	0,0
587,482666015625;	727,5;	0,0;	0,0
587,5430297851562;	779,25;	0,0;	0,0
587,6033325195312;	771,0;	0,0;	0,0
587,6636352539062;	786,5;	0,0;	0,0
587,7239990234375;	838,75;	0,0;	0,0
587,7841796875;	846,75;	0,0;	0,0
587,8445434570312;	925,0;	0,0;	0,0
587,90478515625;	944,5;	0,0;	0,0
587,9649658203125;	950,75;	0,0;	0,0
588,0252075195312;	1046,75;	0,0;	0,0
588,08544921875;	1182,25;	0,0;	0,0
588,1456298828125;	1236,5;	0,0;	0,0
588,205810546875;	1429,75;	0,0;	0,0
588,2659301757812;	1529,75;	0,0;	0,0
588,3261108398438;	1837,75;	0,0;	0,0
588,3862915039062;	2140,0;	0,0;	0,0
588,4464111328125;	2741,75;	0,0;	0,0
588,5065307617188;	3547,75;	0,0;	0,0
588,5665893554688;	4850,75;	0,0;	0,0
588,6266479492188;	7212,25;	0,0;	0,0
588,6867065429688;	11717,5;	0,0;	0,0
588,7467041015625;	16383,75;	0,0;	0,0
588,8067626953125;	16383,75;	0,0;	0,0
588,8667602539062;	16383,75;	0,0;	0,0
588,9267578125;	16383,75;	0,0;	0,0
588,9867553710938;	16383,75;	0,0;	0,0
589,0467529296875;	8960,25;	0,0;	0,0
589,106689453125;	6393,0;	0,0;	0,0
589,1666259765625;	5744,25;	0,0;	0,0
589,2265625;	6205,5;	0,0;	0,0
589,2864379882812;	8736,75;	0,0;	0,0
589,3463745117188;	15112,0;	0,0;	0,0
589,4061889648438;	16383,75;	0,0;	0,0
589,466064453125;	16383,75;	0,0;	0,0
589,5259399414062;	16383,75;	0,0;	0,0
589,5857543945312;	10812,25;	0,0;	0,0
589,6455688476562;	5695,5;	0,0;	0,0
589,7053833007812;	3593,0;	0,0;	0,0
589,76513671875;	2755,75;	0,0;	0,0
589,824951171875;	2144,75;	0,0;	0,0
589,8847045898438;	1721,0;	0,0;	0,0
589,9443969726562;	1617,25;	0,0;	0,0
590,004150390625;	1416,5;	0,0;	0,0
590,0638427734375;	1321,75;	0,0;	0,0
590,12353515625;	1202,75;	0,0;	0,0
590,1832275390625;	1170,5;	0,0;	0,0
590,2428588867188;	1028,0;	0,0;	0,0
590,302490234375;	1012,25;	0,0;	0,0
590,3621215820312;	947,25;	0,0;	0,0
590,4217529296875;	960,75;	0,0;	0,0
590,4813842773438;	896,25;	0,0;	0,0
590,5409545898438;	872,0;	0,0;	0,0
590,6005249023438;	889,0;	0,0;	0,0
590,6600952148438;	833,5;	0,0;	0,0
590,7196044921875;	801,25;	0,0;	0,0
590,7791137695312;	826,5;	0,0;	0,0
590,8386840820312;	800,0;	0,0;	0,0
590,8981323242188;	797,5;	0,0;	0,0
590,9576416015625;	791,75;	0,0;	0,0
591,0170288085938;	784,0;	0,0;	0,0
591,0765380859375;	793,25;	0,0;	0,0
591,135986328125;	842,5;	0,0;	0,0
591,1953735351562;	828,75;	0,0;	0,0
591,2547607421875;	834,25;	0,0;	0,0
591,314208984375;	851,5;	0,0;	0,0
591,37353515625;	789,0;	0,0;	0,0
591,4329223632812;	741,25;	0,0;	0,0
591,4922485351562;	758,75;	0,0;	0,0
591,551513671875;	713,0;	0,0;	0,0
591,6109008789062;	689,25;	0,0;	0,0
591,670166015625;	708,0;	0,0;	0,0
591,7294921875;	677,0;	0,0;	0,0
591,7887573242188;	673,75;	0,0;	0,0
591,847900390625;	672,5;	0,0;	0,0
591,9071655273438;	673,0;	0,0;	0,0
591,9664306640625;	664,0;	0,0;	0,0
592,025634765625;	688,5;	0,0;	0,0
592,0847778320312;	667,25;	0,0;	0,0
592,1439819335938;	669,25;	0,0;	0,0
592,203125;	672,0;	0,0;	0,0
592,2622680664062;	646,5;	0,0;	0,0
592,3214111328125;	642,75;	0,0;	0,0
592,3804931640625;	666,0;	0,0;	0,0
592,4396362304688;	645,5;	0,0;	0,0
592,4987182617188;	646,0;	0,0;	0,0
592,5577392578125;	673,75;	0,0;	0,0
592,6167602539062;	651,75;	0,0;	0,0
592,6758422851562;	632,0;	0,0;	0,0
592,73486328125;	663,75;	0,0;	0,0
592,7938842773438;	703,5;	0,0;	0,0
592,8528442382812;	690,75;	0,0;	0,0
592,9118041992188;	703,75;	0,0;	0,0
592,9707641601562;	661,0;	0,0;	0,0
593,0297241210938;	601,75;	0,0;	0,0
593,0886840820312;	637,25;	0,0;	0,0
593,1475219726562;	627,25;	0,0;	0,0
593,2064819335938;	636,75;	0,0;	0,0
593,2652587890625;	646,0;	0,0;	0,0
593,32421875;	643,75;	0,0;	0,0
593,383056640625;	636,5;	0,0;	0,0
593,44189453125;	628,5;	0,0;	0,0
593,5006713867188;	640,25;	0,0;	0,0
593,5595703125;	617,0;	0,0;	0,0
593,6182861328125;	579,25;	0,0;	0,0
593,6770629882812;	594,75;	0,0;	0,0
593,73583984375;	596,75;	0,0;	0,0
593,7945556640625;	574,0;	0,0;	0,0
593,853271484375;	569,0;	0,0;	0,0
593,9119262695312;	612,5;	0,0;	0,0
593,970703125;	563,75;	0,0;	0,0
594,0293579101562;	581,75;	0,0;	0,0
594,0880126953125;	607,5;	0,0;	0,0
594,146728515625;	582,0;	0,0;	0,0
594,205322265625;	540,75;	0,0;	0,0
594,263916015625;	565,25;	0,0;	0,0
594,3225708007812;	576,75;	0,0;	0,0
594,3811645507812;	566,25;	0,0;	0,0
594,439697265625;	574,5;	0,0;	0,0
594,498291015625;	595,75;	0,0;	0,0
594,5567626953125;	542,5;	0,0;	0,0
594,6153564453125;	565,25;	0,0;	0,0
594,673828125;	527,5;	0,0;	0,0
594,7322998046875;	561,25;	0,0;	0,0
594,790771484375;	600,25;	0,0;	0,0
594,8492431640625;	589,25;	0,0;	0,0
594,90771484375;	542,0;	0,0;	0,0
594,9661254882812;	556,25;	0,0;	0,0
595,0245971679688;	568,0;	0,0;	0,0
595,0829467773438;	570,5;	0,0;	0,0
595,141357421875;	575,0;	0,0;	0,0
595,19970703125;	585,5;	0,0;	0,0
595,2581176757812;	564,0;	0,0;	0,0
595,3164672851562;	501,0;	0,0;	0,0
595,374755859375;	533,75;	0,0;	0,0
595,4330444335938;	566,0;	0,0;	0,0
595,4913330078125;	590,75;	0,0;	0,0
595,5496215820312;	562,0;	0,0;	0,0
595,60791015625;	510,0;	0,0;	0,0
595,6661987304688;	519,25;	0,0;	0,0
595,724365234375;	560,0;	0,0;	0,0
595,7825927734375;	570,75;	0,0;	0,0
595,8408203125;	523,0;	0,0;	0,0
595,8989868164062;	554,0;	0,0;	0,0
595,9572143554688;	528,5;	0,0;	0,0
596,0153198242188;	572,0;	0,0;	0,0
596,073486328125;	540,75;	0,0;	0,0
596,1315307617188;	573,0;	0,0;	0,0
596,1896362304688;	525,5;	0,0;	0,0
596,247802734375;	547,75;	0,0;	0,0
596,3058471679688;	578,5;	0,0;	0,0
596,3638916015625;	541,25;	0,0;	0,0
596,4219970703125;	551,5;	0,0;	0,0
596,47998046875;	521,25;	0,0;	0,0
596,5380249023438;	573,25;	0,0;	0,0
596,5960083007812;	577,75;	0,0;	0,0
596,6539916992188;	503,5;	0,0;	0,0
596,7119750976562;	555,75;	0,0;	0,0
596,7698364257812;	531,0;	0,0;	0,0
596,8278198242188;	548,0;	0,0;	0,0
596,8858032226562;	552,75;	0,0;	0,0
596,9436645507812;	557,25;	0,0;	0,0
597,0015869140625;	530,75;	0,0;	0,0
597,0595092773438;	555,0;	0,0;	0,0
597,1173095703125;	545,5;	0,0;	0,0
597,1751098632812;	523,75;	0,0;	0,0
597,2329711914062;	543,5;	0,0;	0,0
597,290771484375;	538,75;	0,0;	0,0
597,3486328125;	571,0;	0,0;	0,0
597,4063110351562;	629,25;	0,0;	0,0
597,4641723632812;	608,25;	0,0;	0,0
597,5219116210938;	610,75;	0,0;	0,0
597,57958984375;	567,25;	0,0;	0,0
597,6373291015625;	584,0;	0,0;	0,0
597,695068359375;	572,5;	0,0;	0,0
597,7527465820312;	573,0;	0,0;	0,0
597,8104248046875;	554,75;	0,0;	0,0
597,8681030273438;	565,5;	0,0;	0,0
597,9257202148438;	551,0;	0,0;	0,0
597,9833374023438;	536,25;	0,0;	0,0
598,0408935546875;	532,0;	0,0;	0,0
598,0985107421875;	534,25;	0,0;	0,0
598,1561279296875;	604,75;	0,0;	0,0
598,2136840820312;	591,5;	0,0;	0,0
598,271240234375;	631,0;	0,0;	0,0
598,3287353515625;	620,0;	0,0;	0,0
598,3862915039062;	630,0;	0,0;	0,0
598,44384765625;	566,75;	0,0;	0,0
598,5012817382812;	607,25;	0,0;	0,0
598,5587158203125;	589,5;	0,0;	0,0
598,6162109375;	537,0;	0,0;	0,0
598,673583984375;	546,0;	0,0;	0,0
598,7310791015625;	527,25;	0,0;	0,0
598,7885131835938;	521,0;	0,0;	0,0
598,8458251953125;	525,75;	0,0;	0,0
598,9032592773438;	538,5;	0,0;	0,0
598,9605712890625;	524,5;	0,0;	0,0
599,0179443359375;	552,5;	0,0;	0,0
599,0753173828125;	553,0;	0,0;	0,0
599,132568359375;	544,75;	0,0;	0,0
599,1898803710938;	542,75;	0,0;	0,0
599,2472534179688;	563,25;	0,0;	0,0
599,3043823242188;	566,25;	0,0;	0,0
599,3616943359375;	497,5;	0,0;	0,0
599,4189453125;	528,25;	0,0;	0,0
599,4761352539062;	488,25;	0,0;	0,0
599,5333251953125;	535,5;	0,0;	0,0
599,5905151367188;	548,0;	0,0;	0,0
599,647705078125;	538,25;	0,0;	0,0
599,7049560546875;	532,0;	0,0;	0,0
599,7620239257812;	495,5;	0,0;	0,0
599,8191528320312;	523,25;	0,0;	0,0
599,8762817382812;	492,0;	0,0;	0,0
599,933349609375;	531,5;	0,0;	0,0
599,9904174804688;	503,0;	0,0;	0,0
600,0475463867188;	564,75;	0,0;	0,0
600,1045532226562;	521,0;	0,0;	0,0
600,16162109375;	547,0;	0,0;	0,0
600,2186279296875;	548,25;	0,0;	0,0
600,2755737304688;	553,5;	0,0;	0,0
600,3326416015625;	537,25;	0,0;	0,0
600,3895874023438;	491,5;	0,0;	0,0
600,446533203125;	548,5;	0,0;	0,0
600,5034790039062;	552,5;	0,0;	0,0
600,5603637695312;	561,25;	0,0;	0,0
600,6172485351562;	562,5;	0,0;	0,0
600,6742553710938;	596,75;	0,0;	0,0
600,7310791015625;	586,75;	0,0;	0,0
600,7879028320312;	575,75;	0,0;	0,0
600,8447265625;	536,5;	0,0;	0,0
600,9015502929688;	514,75;	0,0;	0,0
600,9584350585938;	486,25;	0,0;	0,0
601,0151977539062;	531,25;	0,0;	0,0
601,0719604492188;	527,75;	0,0;	0,0
601,1287231445312;	537,75;	0,0;	0,0
601,185546875;	546,75;	0,0;	0,0
601,2422485351562;	527,5;	0,0;	0,0
601,2989501953125;	507,0;	0,0;	0,0
601,355712890625;	509,25;	0,0;	0,0
601,412353515625;	538,75;	0,0;	0,0
601,468994140625;	516,25;	0,0;	0,0
601,5256958007812;	559,25;	0,0;	0,0
601,5823364257812;	562,5;	0,0;	0,0
601,6389770507812;	496,0;	0,0;	0,0
601,695556640625;	554,75;	0,0;	0,0
601,7521362304688;	558,0;	0,0;	0,0
601,8087158203125;	626,0;	0,0;	0,0
601,8652954101562;	632,75;	0,0;	0,0
601,9218139648438;	606,5;	0,0;	0,0
601,9783935546875;	552,25;	0,0;	0,0
602,034912109375;	567,5;	0,0;	0,0
602,0913696289062;	589,5;	0,0;	0,0
602,1478271484375;	598,75;	0,0;	0,0
602,204345703125;	660,25;	0,0;	0,0
602,2608032226562;	715,0;	0,0;	0,0
602,3171997070312;	648,75;	0,0;	0,0
602,3736572265625;	574,25;	0,0;	0,0
602,4300537109375;	510,25;	0,0;	0,0
602,4864501953125;	537,5;	0,0;	0,0
602,5427856445312;	542,0;	0,0;	0,0
602,5991821289062;	583,25;	0,0;	0,0
602,655517578125;	499,5;	0,0;	0,0
602,7117919921875;	490,5;	0,0;	0,0
602,7681274414062;	528,75;	0,0;	0,0
602,824462890625;	534,5;	0,0;	0,0
602,8806762695312;	510,5;	0,0;	0,0
602,93701171875;	499,25;	0,0;	0,0
602,9932250976562;	492,25;	0,0;	0,0
603,0494384765625;	493,75;	0,0;	0,0
603,105712890625;	532,75;	0,0;	0,0
603,161865234375;	503,25;	0,0;	0,0
603,2180786132812;	477,5;	0,0;	0,0
603,2742309570312;	538,5;	0,0;	0,0
603,3303833007812;	496,75;	0,0;	0,0
603,3865356445312;	496,25;	0,0;	0,0
603,4426879882812;	495,0;	0,0;	0,0
603,498779296875;	493,25;	0,0;	0,0
603,5548706054688;	507,75;	0,0;	0,0
603,6109008789062;	519,75;	0,0;	0,0
603,6669311523438;	512,5;	0,0;	0,0
603,7230224609375;	506,5;	0,0;	0,0
603,7789916992188;	486,5;	0,0;	0,0
603,8350219726562;	501,75;	0,0;	0,0
603,8909912109375;	478,75;	0,0;	0,0
603,947021484375;	510,25;	0,0;	0,0
604,0030517578125;	486,25;	0,0;	0,0
604,0589599609375;	562,75;	0,0;	0,0
604,1148681640625;	481,75;	0,0;	0,0
604,1707763671875;	494,25;	0,0;	0,0
604,2266845703125;	515,0;	0,0;	0,0
604,2825317382812;	496,5;	0,0;	0,0
604,3385009765625;	529,25;	0,0;	0,0
604,394287109375;	508,75;	0,0;	0,0
604,4501342773438;	512,5;	0,0;	0,0
604,5059204101562;	509,5;	0,0;	0,0
604,5617065429688;	534,25;	0,0;	0,0
604,6175537109375;	528,0;	0,0;	0,0
604,67333984375;	502,25;	0,0;	0,0
604,7290649414062;	540,25;	0,0;	0,0
604,7847900390625;	523,25;	0,0;	0,0
604,8405151367188;	543,0;	0,0;	0,0
604,896240234375;	510,0;	0,0;	0,0
604,9519653320312;	498,5;	0,0;	0,0
605,007568359375;	521,5;	0,0;	0,0
605,0632934570312;	489,5;	0,0;	0,0
605,118896484375;	516,5;	0,0;	0,0
605,174560546875;	531,0;	0,0;	0,0
605,2301635742188;	515,25;	0,0;	0,0
605,2857666015625;	512,75;	0,0;	0,0
605,34130859375;	507,25;	0,0;	0,0
605,3969116210938;	536,75;	0,0;	0,0
605,4524536132812;	570,0;	0,0;	0,0
605,5079956054688;	541,5;	0,0;	0,0
605,5635375976562;	540,75;	0,0;	0,0
605,6190185546875;	505,0;	0,0;	0,0
605,674560546875;	521,75;	0,0;	0,0
605,7299194335938;	497,0;	0,0;	0,0
605,7854614257812;	510,25;	0,0;	0,0
605,8409423828125;	542,25;	0,0;	0,0
605,896240234375;	464,0;	0,0;	0,0
605,9517211914062;	485,75;	0,0;	0,0
606,0070190429688;	540,5;	0,0;	0,0
606,0625;	533,5;	0,0;	0,0
606,1178588867188;	551,5;	0,0;	0,0
606,1732177734375;	516,0;	0,0;	0,0
606,228515625;	494,25;	0,0;	0,0
606,2838745117188;	546,25;	0,0;	0,0
606,339111328125;	578,75;	0,0;	0,0
606,3944091796875;	704,25;	0,0;	0,0
606,44970703125;	605,0;	0,0;	0,0
606,5048828125;	553,5;	0,0;	0,0
606,5601806640625;	493,5;	0,0;	0,0
606,6153564453125;	463,25;	0,0;	0,0
606,6705322265625;	513,0;	0,0;	0,0
606,7257690429688;	497,0;	0,0;	0,0
606,781005859375;	484,75;	0,0;	0,0
606,8360595703125;	449,75;	0,0;	0,0
606,8912353515625;	446,5;	0,0;	0,0
606,9463500976562;	440,0;	0,0;	0,0
607,0014038085938;	477,5;	0,0;	0,0
607,0565795898438;	469,25;	0,0;	0,0
607,1116333007812;	476,75;	0,0;	0,0
607,1666870117188;	473,25;	0,0;	0,0
607,2216796875;	496,0;	0,0;	0,0
607,2767333984375;	473,25;	0,0;	0,0
607,331787109375;	495,5;	0,0;	0,0
607,38671875;	498,25;	0,0;	0,0
607,4417114257812;	491,0;	0,0;	0,0
607,4967041015625;	473,0;	0,0;	0,0
607,5515747070312;	497,0;	0,0;	0,0
607,6065673828125;	497,75;	0,0;	0,0
607,6615600585938;	536,5;	0,0;	0,0
607,7163696289062;	502,5;	0,0;	0,0
607,771240234375;	478,0;	0,0;	0,0
607,8261108398438;	512,5;	0,0;	0,0
607,8809814453125;	464,25;	0,0;	0,0
607,935791015625;	490,25;	0,0;	0,0
607,9906005859375;	439,25;	0,0;	0,0
608,0454711914062;	441,0;	0,0;	0,0
608,1001586914062;	463,25;	0,0;	0,0
608,1549682617188;	469,0;	0,0;	0,0
608,2097778320312;	494,5;	0,0;	0,0
608,2645263671875;	465,0;	0,0;	0,0
608,3191528320312;	470,0;	0,0;	0,0
608,3739013671875;	475,0;	0,0;	0,0
608,4285888671875;	469,5;	0,0;	0,0
608,4832153320312;	485,25;	0,0;	0,0
608,5379638671875;	491,0;	0,0;	0,0
608,5925903320312;	478,5;	0,0;	0,0
608,647216796875;	474,5;	0,0;	0,0
608,7017822265625;	509,25;	0,0;	0,0
608,7564086914062;	505,5;	0,0;	0,0
608,8109741210938;	503,0;	0,0;	0,0
608,8656005859375;	522,25;	0,0;	0,0
608,9201049804688;	485,25;	0,0;	0,0
608,974609375;	495,0;	0,0;	0,0
609,0291137695312;	493,75;	0,0;	0,0
609,0836181640625;	476,0;	0,0;	0,0
609,1381225585938;	465,5;	0,0;	0,0
609,1925659179688;	494,0;	0,0;	0,0
609,2470092773438;	486,5;	0,0;	0,0
609,3014526367188;	493,75;	0,0;	0,0
609,3558349609375;	536,5;	0,0;	0,0
609,4102783203125;	541,25;	0,0;	0,0
609,4646606445312;	517,5;	0,0;	0,0
609,51904296875;	528,75;	0,0;	0,0
609,5734252929688;	536,25;	0,0;	0,0
609,627685546875;	557,25;	0,0;	0,0
609,6820678710938;	543,5;	0,0;	0,0
609,7363891601562;	506,75;	0,0;	0,0
609,7906494140625;	503,75;	0,0;	0,0
609,844970703125;	500,0;	0,0;	0,0
609,899169921875;	570,5;	0,0;	0,0
609,953369140625;	523,75;	0,0;	0,0
610,0076293945312;	674,25;	0,0;	0,0
610,0618286132812;	806,75;	0,0;	0,0
610,1160888671875;	1069,0;	0,0;	0,0
610,170166015625;	1147,75;	0,0;	0,0
610,224365234375;	1040,25;	0,0;	0,0
610,2785034179688;	769,5;	0,0;	0,0
610,3327026367188;	585,25;	0,0;	0,0
610,3867797851562;	536,0;	0,0;	0,0
610,4408569335938;	478,25;	0,0;	0,0
610,4949340820312;	488,5;	0,0;	0,0
610,549072265625;	515,25;	0,0;	0,0
610,6030883789062;	516,0;	0,0;	0,0
610,6571044921875;	530,5;	0,0;	0,0
610,7111206054688;	516,5;	0,0;	0,0
610,7650756835938;	537,75;	0,0;	0,0
610,819091796875;	505,0;	0,0;	0,0
610,8731079101562;	500,5;	0,0;	0,0
610,9270629882812;	518,25;	0,0;	0,0
610,98095703125;	478,25;	0,0;	0,0
611,034912109375;	509,25;	0,0;	0,0
611,0887451171875;	497,5;	0,0;	0,0
611,1427001953125;	506,75;	0,0;	0,0
611,1965942382812;	510,5;	0,0;	0,0
611,2503662109375;	487,5;	0,0;	0,0
611,30419921875;	498,0;	0,0;	0,0
611,3580322265625;	524,25;	0,0;	0,0
611,411865234375;	518,25;	0,0;	0,0
611,4656982421875;	574,25;	0,0;	0,0
611,5194702148438;	500,25;	0,0;	0,0
611,5731811523438;	537,5;	0,0;	0,0
611,626953125;	511,0;	0,0;	0,0
611,6806640625;	535,0;	0,0;	0,0
611,734375;	535,5;	0,0;	0,0
611,7880859375;	534,5;	0,0;	0,0
611,8417358398438;	570,75;	0,0;	0,0
611,8953857421875;	613,0;	0,0;	0,0
611,9490356445312;	654,0;	0,0;	0,0
612,002685546875;	1002,25;	0,0;	0,0
612,0562744140625;	1312,75;	0,0;	0,0
612,1099243164062;	1310,25;	0,0;	0,0
612,1635131835938;	907,5;	0,0;	0,0
612,2171020507812;	606,0;	0,0;	0,0
612,2705688476562;	509,0;	0,0;	0,0
612,3241577148438;	514,25;	0,0;	0,0
612,3776245117188;	530,0;	0,0;	0,0
612,4310913085938;	535,75;	0,0;	0,0
612,484619140625;	533,0;	0,0;	0,0
612,5380859375;	535,0;	0,0;	0,0
612,591552734375;	541,0;	0,0;	0,0
612,64501953125;	541,5;	0,0;	0,0
612,6983642578125;	514,75;	0,0;	0,0
612,7518310546875;	511,0;	0,0;	0,0
612,80517578125;	523,5;	0,0;	0,0
612,8585205078125;	490,5;	0,0;	0,0
612,9119262695312;	511,75;	0,0;	0,0
612,9652709960938;	494,25;	0,0;	0,0
613,0185546875;	490,0;	0,0;	0,0
613,0718383789062;	519,25;	0,0;	0,0
613,1251220703125;	533,25;	0,0;	0,0
613,1784057617188;	498,25;	0,0;	0,0
613,2317504882812;	511,0;	0,0;	0,0
613,2849731445312;	537,5;	0,0;	0,0
613,338134765625;	521,0;	0,0;	0,0
613,391357421875;	619,0;	0,0;	0,0
613,4445190429688;	713,5;	0,0;	0,0
613,4977416992188;	868,0;	0,0;	0,0
613,5509033203125;	958,75;	0,0;	0,0
613,6040649414062;	869,0;	0,0;	0,0
613,6572265625;	711,5;	0,0;	0,0
613,7102661132812;	618,75;	0,0;	0,0
613,7633666992188;	547,0;	0,0;	0,0
613,8164672851562;	540,25;	0,0;	0,0
613,8695068359375;	533,0;	0,0;	0,0
613,922607421875;	588,75;	0,0;	0,0
613,9755859375;	607,75;	0,0;	0,0
614,028564453125;	691,5;	0,0;	0,0
614,0816040039062;	661,0;	0,0;	0,0
614,1346435546875;	563,0;	0,0;	0,0
614,1875610351562;	526,25;	0,0;	0,0
614,2405395507812;	527,25;	0,0;	0,0
614,2933959960938;	525,75;	0,0;	0,0
614,3463745117188;	515,5;	0,0;	0,0
614,3992919921875;	534,5;	0,0;	0,0
614,4521484375;	515,0;	0,0;	0,0
614,5050048828125;	507,5;	0,0;	0,0
614,5578002929688;	537,75;	0,0;	0,0
614,6106567382812;	535,75;	0,0;	0,0
614,6635131835938;	513,75;	0,0;	0,0
614,7163696289062;	501,0;	0,0;	0,0
614,7691040039062;	543,25;	0,0;	0,0
614,8218994140625;	543,25;	0,0;	0,0
614,8746337890625;	514,75;	0,0;	0,0
614,9273681640625;	533,75;	0,0;	0,0
614,9801025390625;	546,0;	0,0;	0,0
615,0327758789062;	515,0;	0,0;	0,0
615,0855102539062;	520,0;	0,0;	0,0
615,1381225585938;	540,25;	0,0;	0,0
615,1908569335938;	575,25;	0,0;	0,0
615,2434692382812;	623,0;	0,0;	0,0
615,2960815429688;	621,0;	0,0;	0,0
615,3486938476562;	579,0;	0,0;	0,0
615,4012451171875;	633,5;	0,0;	0,0
615,453857421875;	575,0;	0,0;	0,0
615,5064697265625;	560,0;	0,0;	0,0
615,5589599609375;	578,0;	0,0;	0,0
615,6114501953125;	615,0;	0,0;	0,0
615,6640014648438;	580,75;	0,0;	0,0
615,7164306640625;	607,5;	0,0;	0,0
615,7689819335938;	585,0;	0,0;	0,0
615,8214111328125;	675,5;	0,0;	0,0
615,8738403320312;	836,0;	0,0;	0,0
615,9263305664062;	950,25;	0,0;	0,0
615,9786987304688;	1240,25;	0,0;	0,0
616,0310668945312;	1650,0;	0,0;	0,0
616,08349609375;	1950,25;	0,0;	0,0
616,1358642578125;	1406,5;	0,0;	0,0
616,1881713867188;	910,0;	0,0;	0,0
616,2405395507812;	694,0;	0,0;	0,0
616,2928466796875;	621,5;	0,0;	0,0
616,3450927734375;	607,5;	0,0;	0,0
616,3974609375;	605,75;	0,0;	0,0
616,4496459960938;	615,5;	0,0;	0,0
616,501953125;	634,5;	0,0;	0,0
616,5540771484375;	625,25;	0,0;	0,0
616,6063842773438;	611,75;	0,0;	0,0
616,6585693359375;	606,75;	0,0;	0,0
616,7107543945312;	655,25;	0,0;	0,0
616,7628784179688;	771,75;	0,0;	0,0
616,8150634765625;	807,0;	0,0;	0,0
616,8671264648438;	721,25;	0,0;	0,0
616,9193115234375;	689,75;	0,0;	0,0
616,971435546875;	633,5;	0,0;	0,0
617,0234985351562;	581,25;	0,0;	0,0
617,0756225585938;	602,5;	0,0;	0,0
617,1275634765625;	545,0;	0,0;	0,0
617,1796875;	597,75;	0,0;	0,0
617,231689453125;	591,75;	0,0;	0,0
617,28369140625;	577,0;	0,0;	0,0
617,3356323242188;	591,75;	0,0;	0,0
617,3876953125;	525,5;	0,0;	0,0
617,4395751953125;	570,75;	0,0;	0,0
617,4915161132812;	583,25;	0,0;	0,0
617,54345703125;	597,0;	0,0;	0,0
617,5953369140625;	553,75;	0,0;	0,0
617,6472778320312;	581,75;	0,0;	0,0
617,6990966796875;	555,25;	0,0;	0,0
617,7509765625;	611,5;	0,0;	0,0
617,8027954101562;	586,5;	0,0;	0,0
617,8546142578125;	568,75;	0,0;	0,0
617,906494140625;	610,75;	0,0;	0,0
617,9581909179688;	615,0;	0,0;	0,0
618,010009765625;	546,75;	0,0;	0,0
618,061767578125;	608,75;	0,0;	0,0
618,113525390625;	578,25;	0,0;	0,0
618,1652221679688;	595,75;	0,0;	0,0
618,2169799804688;	581,5;	0,0;	0,0
618,2686157226562;	615,25;	0,0;	0,0
618,3203125;	559,25;	0,0;	0,0
618,3720092773438;	572,5;	0,0;	0,0
618,423583984375;	551,75;	0,0;	0,0
618,4752197265625;	596,75;	0,0;	0,0
618,5267944335938;	555,5;	0,0;	0,0
618,5784301757812;	562,0;	0,0;	0,0
618,6300048828125;	617,25;	0,0;	0,0
618,681640625;	572,25;	0,0;	0,0
618,7330932617188;	570,75;	0,0;	0,0
618,7846069335938;	591,25;	0,0;	0,0
618,8361206054688;	583,5;	0,0;	0,0
618,8876342773438;	607,5;	0,0;	0,0
618,9391479492188;	655,5;	0,0;	0,0
618,9905395507812;	762,25;	0,0;	0,0
619,0419921875;	784,5;	0,0;	0,0
619,0933837890625;	673,25;	0,0;	0,0
619,1448364257812;	582,75;	0,0;	0,0
619,1962890625;	566,75;	0,0;	0,0
619,2476196289062;	535,5;	0,0;	0,0
619,2990112304688;	596,75;	0,0;	0,0
619,3504028320312;	549,5;	0,0;	0,0
619,4016723632812;	564,75;	0,0;	0,0
619,4530029296875;	542,25;	0,0;	0,0
619,5043334960938;	572,75;	0,0;	0,0
619,5555419921875;	563,25;	0,0;	0,0
619,6068115234375;	584,25;	0,0;	0,0
619,6580810546875;	578,75;	0,0;	0,0
619,7092895507812;	546,0;	0,0;	0,0
619,7605590820312;	543,25;	0,0;	0,0
619,8117065429688;	566,0;	0,0;	0,0
619,8628540039062;	563,0;	0,0;	0,0
619,9140014648438;	589,75;	0,0;	0,0
619,9652099609375;	572,0;	0,0;	0,0
620,0162963867188;	574,5;	0,0;	0,0
620,0675048828125;	554,0;	0,0;	0,0
620,1185913085938;	524,0;	0,0;	0,0
620,169677734375;	563,75;	0,0;	0,0
620,2206420898438;	596,0;	0,0;	0,0
620,2717895507812;	578,25;	0,0;	0,0
620,3228149414062;	600,5;	0,0;	0,0
620,373779296875;	567,0;	0,0;	0,0
620,4248046875;	597,75;	0,0;	0,0
620,4757690429688;	562,5;	0,0;	0,0
620,5267333984375;	583,5;	0,0;	0,0
620,5777587890625;	582,25;	0,0;	0,0
620,628662109375;	546,5;	0,0;	0,0
620,6795654296875;	557,25;	0,0;	0,0
620,73046875;	606,75;	0,0;	0,0
620,7813110351562;	564,75;	0,0;	0,0
620,8322143554688;	547,5;	0,0;	0,0
620,883056640625;	571,75;	0,0;	0,0
620,933837890625;	561,0;	0,0;	0,0
620,9846801757812;	591,75;	0,0;	0,0
621,0354614257812;	566,25;	0,0;	0,0
621,0863037109375;	540,75;	0,0;	0,0
621,1370849609375;	569,25;	0,0;	0,0
621,1878662109375;	580,0;	0,0;	0,0
621,2385864257812;	590,75;	0,0;	0,0
621,2892456054688;	530,5;	0,0;	0,0
621,3399047851562;	582,75;	0,0;	0,0
621,3906860351562;	567,5;	0,0;	0,0
621,4413452148438;	573,5;	0,0;	0,0
621,491943359375;	519,75;	0,0;	0,0
621,5426025390625;	538,25;	0,0;	0,0
621,5931396484375;	540,75;	0,0;	0,0
621,643798828125;	558,25;	0,0;	0,0
621,6943969726562;	584,25;	0,0;	0,0
621,7449951171875;	622,75;	0,0;	0,0
621,7955322265625;	617,0;	0,0;	0,0
621,8460693359375;	587,25;	0,0;	0,0
621,8965454101562;	562,5;	0,0;	0,0
621,9470825195312;	547,0;	0,0;	0,0
621,9976196289062;	561,75;	0,0;	0,0
622,0480346679688;	545,0;	0,0;	0,0
622,0985107421875;	581,5;	0,0;	0,0
622,1488647460938;	557,25;	0,0;	0,0
622,1993408203125;	565,0;	0,0;	0,0
622,249755859375;	579,25;	0,0;	0,0
622,3001708984375;	578,5;	0,0;	0,0
622,3505249023438;	559,75;	0,0;	0,0
622,4008178710938;	576,0;	0,0;	0,0
622,451171875;	571,0;	0,0;	0,0
622,5015258789062;	561,5;	0,0;	0,0
622,5518798828125;	598,75;	0,0;	0,0
622,6021118164062;	579,75;	0,0;	0,0
622,6524047851562;	555,0;	0,0;	0,0
622,7025756835938;	579,5;	0,0;	0,0
622,7528686523438;	610,25;	0,0;	0,0
622,8031616210938;	670,75;	0,0;	0,0
622,853271484375;	750,75;	0,0;	0,0
622,9034423828125;	858,5;	0,0;	0,0
622,95361328125;	892,75;	0,0;	0,0
623,0037841796875;	695,5;	0,0;	0,0
623,053955078125;	626,75;	0,0;	0,0
623,1040649414062;	660,25;	0,0;	0,0
623,1541137695312;	619,25;	0,0;	0,0
623,2042236328125;	604,25;	0,0;	0,0
623,2542724609375;	624,25;	0,0;	0,0
623,3043823242188;	595,75;	0,0;	0,0
623,3544311523438;	554,0;	0,0;	0,0
623,4044189453125;	565,0;	0,0;	0,0
623,4544677734375;	589,0;	0,0;	0,0
623,50439453125;	548,5;	0,0;	0,0
623,5543823242188;	535,25;	0,0;	0,0
623,6043701171875;	574,5;	0,0;	0,0
623,6543579101562;	512,0;	0,0;	0,0
623,7042236328125;	561,0;	0,0;	0,0
623,754150390625;	555,25;	0,0;	0,0
623,803955078125;	548,5;	0,0;	0,0
623,8538818359375;	550,25;	0,0;	0,0
623,9037475585938;	570,0;	0,0;	0,0
623,9535522460938;	502,5;	0,0;	0,0
624,0033569335938;	566,0;	0,0;	0,0
624,0531616210938;	549,75;	0,0;	0,0
624,1029663085938;	555,5;	0,0;	0,0
624,1527709960938;	552,5;	0,0;	0,0
624,2025756835938;	535,25;	0,0;	0,0
624,2522583007812;	555,0;	0,0;	0,0
624,3019409179688;	564,25;	0,0;	0,0
624,3516235351562;	563,75;	0,0;	0,0
624,4013671875;	556,25;	0,0;	0,0
624,4510498046875;	681,5;	0,0;	0,0
624,5006713867188;	682,5;	0,0;	0,0
624,5503540039062;	608,0;	0,0;	0,0
624,599853515625;	585,25;	0,0;	0,0
624,6495361328125;	563,5;	0,0;	0,0
624,6991577148438;	545,25;	0,0;	0,0
624,7486572265625;	554,25;	0,0;	0,0
624,7982177734375;	552,5;	0,0;	0,0
624,8477172851562;	555,0;	0,0;	0,0
624,8972778320312;	541,25;	0,0;	0,0
624,94677734375;	541,5;	0,0;	0,0
624,9962768554688;	597,5;	0,0;	0,0
625,0457763671875;	635,75;	0,0;	0,0
625,09521484375;	686,5;	0,0;	0,0
625,1446533203125;	680,0;	0,0;	0,0
625,194091796875;	604,75;	0,0;	0,0
625,2434692382812;	590,25;	0,0;	0,0
625,2928466796875;	578,25;	0,0;	0,0
625,3422241210938;	535,25;	0,0;	0,0
625,3914794921875;	546,0;	0,0;	0,0
625,44091796875;	534,25;	0,0;	0,0
625,490234375;	565,5;	0,0;	0,0
625,53955078125;	513,0;	0,0;	0,0
625,5888061523438;	528,5;	0,0;	0,0
625,6380615234375;	521,5;	0,0;	0,0
625,687255859375;	540,0;	0,0;	0,0
625,736572265625;	543,75;	0,0;	0,0
625,7858276367188;	0,0;	0,0;	0,0
