0.0	1.5
Integration time [ms]:	1.05
Averaging Nr. [scans]:1
Smoothing Nr. [pixels]:0
Data measured with spectrometer [name]:b'1703278U8'
Wave	;Sample	;Dark	;Reference	;Scope	
[nm]	;[counts]	;[counts]	;[counts]	
 
619,9722900390625;	365,0;	0,0;	0,0
620,0406494140625;	380,75;	0,0;	0,0
620,1089477539062;	385,25;	0,0;	0,0
620,17724609375;	397,25;	0,0;	0,0
620,2455444335938;	398,0;	0,0;	0,0
620,3137817382812;	358,0;	0,0;	0,0
620,382080078125;	382,75;	0,0;	0,0
620,4503173828125;	394,5;	0,0;	0,0
620,5185546875;	379,0;	0,0;	0,0
620,5867919921875;	382,5;	0,0;	0,0
620,6549072265625;	395,0;	0,0;	0,0
620,72314453125;	412,25;	0,0;	0,0
620,7913208007812;	398,25;	0,0;	0,0
620,8594360351562;	412,0;	0,0;	0,0
620,9276123046875;	424,75;	0,0;	0,0
620,9957885742188;	412,0;	0,0;	0,0
621,0638427734375;	402,0;	0,0;	0,0
621,1319580078125;	403,0;	0,0;	0,0
621,2000732421875;	421,5;	0,0;	0,0
621,2681274414062;	430,75;	0,0;	0,0
621,336181640625;	430,0;	0,0;	0,0
621,404296875;	439,0;	0,0;	0,0
621,4722900390625;	434,0;	0,0;	0,0
621,540283203125;	433,75;	0,0;	0,0
621,6083374023438;	426,75;	0,0;	0,0
621,67626953125;	448,5;	0,0;	0,0
621,7442626953125;	411,0;	0,0;	0,0
621,812255859375;	449,5;	0,0;	0,0
621,8801879882812;	433,25;	0,0;	0,0
621,9481201171875;	501,25;	0,0;	0,0
622,0159912109375;	467,75;	0,0;	0,0
622,0839233398438;	458,5;	0,0;	0,0
622,15185546875;	473,25;	0,0;	0,0
622,2196655273438;	437,5;	0,0;	0,0
622,2875366210938;	437,0;	0,0;	0,0
622,3554077148438;	496,75;	0,0;	0,0
622,4232177734375;	449,25;	0,0;	0,0
622,4910278320312;	443,5;	0,0;	0,0
622,5588989257812;	475,75;	0,0;	0,0
622,6266479492188;	472,0;	0,0;	0,0
622,6943969726562;	481,25;	0,0;	0,0
622,76220703125;	454,0;	0,0;	0,0
622,8298950195312;	519,75;	0,0;	0,0
622,8976440429688;	561,25;	0,0;	0,0
622,9653930664062;	611,0;	0,0;	0,0
623,0330810546875;	650,0;	0,0;	0,0
623,1007080078125;	779,0;	0,0;	0,0
623,1683349609375;	762,25;	0,0;	0,0
623,2360229492188;	581,0;	0,0;	0,0
623,3037109375;	568,5;	0,0;	0,0
623,3712768554688;	556,0;	0,0;	0,0
623,43896484375;	531,5;	0,0;	0,0
623,506591796875;	537,5;	0,0;	0,0
623,5740966796875;	517,0;	0,0;	0,0
623,6417236328125;	493,75;	0,0;	0,0
623,7092895507812;	512,5;	0,0;	0,0
623,7767944335938;	487,25;	0,0;	0,0
623,8443603515625;	499,25;	0,0;	0,0
623,9119262695312;	489,0;	0,0;	0,0
623,9793701171875;	512,25;	0,0;	0,0
624,046875;	494,75;	0,0;	0,0
624,1143798828125;	533,5;	0,0;	0,0
624,1818237304688;	514,0;	0,0;	0,0
624,249267578125;	497,0;	0,0;	0,0
624,316650390625;	487,0;	0,0;	0,0
624,3840942382812;	479,75;	0,0;	0,0
624,4515380859375;	496,75;	0,0;	0,0
624,518798828125;	505,0;	0,0;	0,0
624,5862426757812;	547,5;	0,0;	0,0
624,6536254882812;	586,5;	0,0;	0,0
624,7208862304688;	606,75;	0,0;	0,0
624,7882690429688;	528,25;	0,0;	0,0
624,8555908203125;	527,5;	0,0;	0,0
624,9228515625;	506,25;	0,0;	0,0
624,9901733398438;	486,75;	0,0;	0,0
625,0574951171875;	462,75;	0,0;	0,0
625,1246948242188;	554,5;	0,0;	0,0
625,1919555664062;	523,75;	0,0;	0,0
625,2592163085938;	610,5;	0,0;	0,0
625,3263549804688;	647,25;	0,0;	0,0
625,3936157226562;	568,25;	0,0;	0,0
625,4608154296875;	511,75;	0,0;	0,0
625,5279541015625;	512,25;	0,0;	0,0
625,5950927734375;	507,25;	0,0;	0,0
625,6622314453125;	480,5;	0,0;	0,0
625,7293701171875;	499,0;	0,0;	0,0
625,7965087890625;	482,25;	0,0;	0,0
625,8635864257812;	498,0;	0,0;	0,0
625,9306640625;	478,0;	0,0;	0,0
625,9977416992188;	452,75;	0,0;	0,0
626,0647583007812;	445,5;	0,0;	0,0
626,1318359375;	470,5;	0,0;	0,0
626,1989135742188;	451,0;	0,0;	0,0
626,265869140625;	442,0;	0,0;	0,0
626,3328857421875;	445,75;	0,0;	0,0
626,39990234375;	432,25;	0,0;	0,0
626,466796875;	477,25;	0,0;	0,0
626,5338134765625;	480,5;	0,0;	0,0
626,6007690429688;	468,0;	0,0;	0,0
626,6676635742188;	472,75;	0,0;	0,0
626,734619140625;	421,5;	0,0;	0,0
626,8014526367188;	456,0;	0,0;	0,0
626,8683471679688;	461,25;	0,0;	0,0
626,9352416992188;	434,5;	0,0;	0,0
627,0020141601562;	428,75;	0,0;	0,0
627,0689086914062;	448,75;	0,0;	0,0
627,1357421875;	464,5;	0,0;	0,0
627,2025756835938;	428,5;	0,0;	0,0
627,2694091796875;	421,75;	0,0;	0,0
627,3361206054688;	462,25;	0,0;	0,0
627,4028930664062;	455,75;	0,0;	0,0
627,4696655273438;	424,25;	0,0;	0,0
627,5364379882812;	420,25;	0,0;	0,0
627,6031494140625;	439,25;	0,0;	0,0
627,6697998046875;	458,0;	0,0;	0,0
627,7365112304688;	434,25;	0,0;	0,0
627,8031616210938;	426,5;	0,0;	0,0
627,869873046875;	384,5;	0,0;	0,0
627,9365234375;	376,5;	0,0;	0,0
628,0031127929688;	409,5;	0,0;	0,0
628,0697631835938;	424,5;	0,0;	0,0
628,1363525390625;	420,25;	0,0;	0,0
628,2030029296875;	432,75;	0,0;	0,0
628,26953125;	403,75;	0,0;	0,0
628,3361206054688;	421,25;	0,0;	0,0
628,4026489257812;	407,75;	0,0;	0,0
628,46923828125;	394,0;	0,0;	0,0
628,5357055664062;	429,25;	0,0;	0,0
628,6022338867188;	370,75;	0,0;	0,0
628,6687622070312;	411,5;	0,0;	0,0
628,7352294921875;	382,75;	0,0;	0,0
628,8016357421875;	392,0;	0,0;	0,0
628,8681640625;	400,5;	0,0;	0,0
628,9345703125;	411,25;	0,0;	0,0
629,0010375976562;	378,75;	0,0;	0,0
629,0673217773438;	437,25;	0,0;	0,0
629,1337890625;	399,5;	0,0;	0,0
629,2001953125;	398,75;	0,0;	0,0
629,2664794921875;	413,0;	0,0;	0,0
629,3328247070312;	397,25;	0,0;	0,0
629,3992309570312;	408,0;	0,0;	0,0
629,4655151367188;	398,75;	0,0;	0,0
629,5317993164062;	387,75;	0,0;	0,0
629,59814453125;	396,0;	0,0;	0,0
629,6643676757812;	376,5;	0,0;	0,0
629,7306518554688;	394,5;	0,0;	0,0
629,7969360351562;	393,75;	0,0;	0,0
629,8631591796875;	394,75;	0,0;	0,0
629,9293212890625;	407,0;	0,0;	0,0
629,9955444335938;	408,75;	0,0;	0,0
630,061767578125;	447,75;	0,0;	0,0
630,1278686523438;	457,25;	0,0;	0,0
630,194091796875;	531,25;	0,0;	0,0
630,26025390625;	524,0;	0,0;	0,0
630,3263549804688;	492,75;	0,0;	0,0
630,3924560546875;	409,25;	0,0;	0,0
630,45849609375;	417,0;	0,0;	0,0
630,524658203125;	407,0;	0,0;	0,0
630,5906982421875;	363,0;	0,0;	0,0
630,65673828125;	382,75;	0,0;	0,0
630,7228393554688;	386,5;	0,0;	0,0
630,7888793945312;	376,0;	0,0;	0,0
630,8548583984375;	385,0;	0,0;	0,0
630,9208984375;	394,0;	0,0;	0,0
630,98681640625;	378,25;	0,0;	0,0
631,0527954101562;	386,75;	0,0;	0,0
631,1187744140625;	368,5;	0,0;	0,0
631,1846923828125;	365,5;	0,0;	0,0
631,2506713867188;	391,0;	0,0;	0,0
631,3165893554688;	375,5;	0,0;	0,0
631,3824462890625;	358,25;	0,0;	0,0
631,4483032226562;	362,75;	0,0;	0,0
631,51416015625;	374,75;	0,0;	0,0
631,5800170898438;	415,5;	0,0;	0,0
631,6459350585938;	395,25;	0,0;	0,0
631,711669921875;	423,0;	0,0;	0,0
631,7775268554688;	400,25;	0,0;	0,0
631,8433227539062;	452,75;	0,0;	0,0
631,9090576171875;	414,75;	0,0;	0,0
631,974853515625;	392,0;	0,0;	0,0
632,0406494140625;	380,5;	0,0;	0,0
632,1063232421875;	391,0;	0,0;	0,0
632,1720581054688;	372,25;	0,0;	0,0
632,23779296875;	402,75;	0,0;	0,0
632,303466796875;	374,0;	0,0;	0,0
632,369140625;	392,25;	0,0;	0,0
632,4348754882812;	366,5;	0,0;	0,0
632,5004272460938;	375,0;	0,0;	0,0
632,5661010742188;	375,25;	0,0;	0,0
632,6317138671875;	354,0;	0,0;	0,0
632,6973266601562;	348,0;	0,0;	0,0
632,762939453125;	360,75;	0,0;	0,0
632,8284912109375;	356,0;	0,0;	0,0
632,89404296875;	388,0;	0,0;	0,0
632,9595947265625;	346,5;	0,0;	0,0
633,025146484375;	355,0;	0,0;	0,0
633,0906372070312;	398,25;	0,0;	0,0
633,1561889648438;	375,0;	0,0;	0,0
633,2216186523438;	384,0;	0,0;	0,0
633,287109375;	354,25;	0,0;	0,0
633,3526000976562;	339,0;	0,0;	0,0
633,4180297851562;	375,5;	0,0;	0,0
633,4835205078125;	418,5;	0,0;	0,0
633,5488891601562;	448,0;	0,0;	0,0
633,6142578125;	445,5;	0,0;	0,0
633,6796875;	424,5;	0,0;	0,0
633,7450561523438;	457,75;	0,0;	0,0
633,8103637695312;	404,75;	0,0;	0,0
633,8757934570312;	382,5;	0,0;	0,0
633,9410400390625;	363,75;	0,0;	0,0
634,00634765625;	388,75;	0,0;	0,0
634,0717163085938;	392,25;	0,0;	0,0
634,136962890625;	348,75;	0,0;	0,0
634,2022094726562;	369,25;	0,0;	0,0
634,2675170898438;	367,75;	0,0;	0,0
634,3327026367188;	385,75;	0,0;	0,0
634,39794921875;	353,5;	0,0;	0,0
634,4631958007812;	346,75;	0,0;	0,0
634,5283813476562;	391,5;	0,0;	0,0
634,5935668945312;	358,25;	0,0;	0,0
634,6587524414062;	373,75;	0,0;	0,0
634,7238159179688;	344,75;	0,0;	0,0
634,7890014648438;	366,75;	0,0;	0,0
634,8541870117188;	346,25;	0,0;	0,0
634,919189453125;	381,0;	0,0;	0,0
634,9843139648438;	365,75;	0,0;	0,0
635,0493774414062;	366,75;	0,0;	0,0
635,114501953125;	337,75;	0,0;	0,0
635,1795654296875;	367,0;	0,0;	0,0
635,2445068359375;	340,5;	0,0;	0,0
635,3095703125;	360,75;	0,0;	0,0
635,3746337890625;	333,75;	0,0;	0,0
635,4395751953125;	345,75;	0,0;	0,0
635,5045776367188;	358,0;	0,0;	0,0
635,5695190429688;	399,75;	0,0;	0,0
635,6344604492188;	369,25;	0,0;	0,0
635,6994018554688;	349,25;	0,0;	0,0
635,7642822265625;	356,75;	0,0;	0,0
635,8292236328125;	377,0;	0,0;	0,0
635,8941040039062;	370,75;	0,0;	0,0
635,9590454101562;	350,5;	0,0;	0,0
636,0238037109375;	370,0;	0,0;	0,0
636,0886840820312;	363,75;	0,0;	0,0
636,1535034179688;	365,5;	0,0;	0,0
636,2183227539062;	345,25;	0,0;	0,0
636,2831420898438;	359,25;	0,0;	0,0
636,3478393554688;	400,0;	0,0;	0,0
636,4126586914062;	356,75;	0,0;	0,0
636,4774169921875;	371,25;	0,0;	0,0
636,5421142578125;	348,0;	0,0;	0,0
636,60693359375;	364,0;	0,0;	0,0
636,6716918945312;	354,5;	0,0;	0,0
636,736328125;	370,75;	0,0;	0,0
636,801025390625;	353,0;	0,0;	0,0
636,86572265625;	349,5;	0,0;	0,0
636,9302978515625;	370,0;	0,0;	0,0
636,9949951171875;	370,75;	0,0;	0,0
637,0596313476562;	346,25;	0,0;	0,0
637,1242065429688;	368,5;	0,0;	0,0
637,1888427734375;	345,75;	0,0;	0,0
637,2533569335938;	358,5;	0,0;	0,0
637,31787109375;	337,25;	0,0;	0,0
637,3824462890625;	329,5;	0,0;	0,0
637,4469604492188;	326,75;	0,0;	0,0
637,5115356445312;	355,75;	0,0;	0,0
637,5760498046875;	325,75;	0,0;	0,0
637,6405029296875;	341,5;	0,0;	0,0
637,7050170898438;	327,25;	0,0;	0,0
637,7694702148438;	357,25;	0,0;	0,0
637,8339233398438;	346,25;	0,0;	0,0
637,8983764648438;	339,75;	0,0;	0,0
637,9627685546875;	374,75;	0,0;	0,0
638,027099609375;	334,0;	0,0;	0,0
638,091552734375;	346,0;	0,0;	0,0
638,1559448242188;	351,0;	0,0;	0,0
638,2202758789062;	351,75;	0,0;	0,0
638,28466796875;	362,75;	0,0;	0,0
638,3489990234375;	346,0;	0,0;	0,0
638,4132690429688;	323,0;	0,0;	0,0
638,4776000976562;	340,0;	0,0;	0,0
638,5418701171875;	329,25;	0,0;	0,0
638,6061401367188;	318,75;	0,0;	0,0
638,6703491210938;	381,0;	0,0;	0,0
638,7345581054688;	349,0;	0,0;	0,0
638,798828125;	343,5;	0,0;	0,0
638,8630981445312;	345,5;	0,0;	0,0
638,9271850585938;	359,25;	0,0;	0,0
638,9913940429688;	342,5;	0,0;	0,0
639,0556030273438;	342,5;	0,0;	0,0
639,1197509765625;	349,25;	0,0;	0,0
639,1838989257812;	349,25;	0,0;	0,0
639,248046875;	371,0;	0,0;	0,0
639,3121337890625;	438,25;	0,0;	0,0
639,376220703125;	537,25;	0,0;	0,0
639,4403076171875;	537,5;	0,0;	0,0
639,5043334960938;	355,0;	0,0;	0,0
639,568359375;	340,0;	0,0;	0,0
639,6324462890625;	373,0;	0,0;	0,0
639,6964721679688;	353,0;	0,0;	0,0
639,7604370117188;	362,75;	0,0;	0,0
639,8244018554688;	364,0;	0,0;	0,0
639,888427734375;	413,0;	0,0;	0,0
639,952392578125;	515,5;	0,0;	0,0
640,0162963867188;	724,0;	0,0;	0,0
640,0802612304688;	671,75;	0,0;	0,0
640,1442260742188;	462,5;	0,0;	0,0
640,2080078125;	361,5;	0,0;	0,0
640,27197265625;	382,25;	0,0;	0,0
640,3358154296875;	354,5;	0,0;	0,0
640,399658203125;	349,75;	0,0;	0,0
640,4635620117188;	359,75;	0,0;	0,0
640,52734375;	338,75;	0,0;	0,0
640,5911865234375;	324,0;	0,0;	0,0
640,6549682617188;	329,25;	0,0;	0,0
640,7188110351562;	350,75;	0,0;	0,0
640,782470703125;	389,75;	0,0;	0,0
640,8462524414062;	399,25;	0,0;	0,0
640,9099731445312;	369,5;	0,0;	0,0
640,9736938476562;	363,5;	0,0;	0,0
641,0374755859375;	426,25;	0,0;	0,0
641,10107421875;	388,75;	0,0;	0,0
641,164794921875;	473,0;	0,0;	0,0
641,2284545898438;	508,75;	0,0;	0,0
641,2920532226562;	402,75;	0,0;	0,0
641,3557739257812;	353,5;	0,0;	0,0
641,4193725585938;	302,75;	0,0;	0,0
641,4829711914062;	323,0;	0,0;	0,0
641,5465698242188;	348,75;	0,0;	0,0
641,610107421875;	358,25;	0,0;	0,0
641,6737060546875;	331,25;	0,0;	0,0
641,7372436523438;	322,75;	0,0;	0,0
641,80078125;	372,5;	0,0;	0,0
641,8642578125;	362,25;	0,0;	0,0
641,9277954101562;	370,5;	0,0;	0,0
641,9912109375;	398,0;	0,0;	0,0
642,0546875;	413,25;	0,0;	0,0
642,1182250976562;	455,75;	0,0;	0,0
642,1815795898438;	469,0;	0,0;	0,0
642,2450561523438;	406,75;	0,0;	0,0
642,3084716796875;	326,5;	0,0;	0,0
642,371826171875;	328,5;	0,0;	0,0
642,4352416992188;	343,75;	0,0;	0,0
642,4985961914062;	333,5;	0,0;	0,0
642,5618896484375;	357,25;	0,0;	0,0
642,625244140625;	347,25;	0,0;	0,0
642,6885986328125;	343,75;	0,0;	0,0
642,7518920898438;	339,25;	0,0;	0,0
642,815185546875;	325,75;	0,0;	0,0
642,8784790039062;	347,0;	0,0;	0,0
642,9417114257812;	359,5;	0,0;	0,0
643,0050048828125;	397,25;	0,0;	0,0
643,0682373046875;	414,5;	0,0;	0,0
643,1314086914062;	478,75;	0,0;	0,0
643,1946411132812;	390,0;	0,0;	0,0
643,2577514648438;	340,75;	0,0;	0,0
643,3209838867188;	352,5;	0,0;	0,0
643,3841552734375;	349,25;	0,0;	0,0
643,447265625;	335,75;	0,0;	0,0
643,5104370117188;	315,5;	0,0;	0,0
643,5735473632812;	336,75;	0,0;	0,0
643,6365966796875;	349,25;	0,0;	0,0
643,69970703125;	345,5;	0,0;	0,0
643,7628173828125;	391,25;	0,0;	0,0
643,8258056640625;	500,75;	0,0;	0,0
643,888916015625;	641,75;	0,0;	0,0
643,9519653320312;	853,0;	0,0;	0,0
644,0148315429688;	534,25;	0,0;	0,0
644,077880859375;	365,5;	0,0;	0,0
644,140869140625;	345,75;	0,0;	0,0
644,2037963867188;	352,25;	0,0;	0,0
644,2667846679688;	351,0;	0,0;	0,0
644,3297119140625;	366,0;	0,0;	0,0
644,3926391601562;	350,25;	0,0;	0,0
644,45556640625;	358,25;	0,0;	0,0
644,5184326171875;	328,5;	0,0;	0,0
644,5812377929688;	363,5;	0,0;	0,0
644,6441650390625;	342,5;	0,0;	0,0
644,7069702148438;	327,5;	0,0;	0,0
644,7698364257812;	341,5;	0,0;	0,0
644,8327026367188;	354,75;	0,0;	0,0
644,8953857421875;	375,75;	0,0;	0,0
644,9581909179688;	399,25;	0,0;	0,0
645,02099609375;	411,25;	0,0;	0,0
645,083740234375;	377,75;	0,0;	0,0
645,146484375;	340,25;	0,0;	0,0
645,209228515625;	344,25;	0,0;	0,0
645,2719116210938;	339,5;	0,0;	0,0
645,3345947265625;	339,5;	0,0;	0,0
645,3972778320312;	331,25;	0,0;	0,0
645,4599609375;	364,5;	0,0;	0,0
645,5225830078125;	323,0;	0,0;	0,0
645,585205078125;	381,75;	0,0;	0,0
645,6478881835938;	338,25;	0,0;	0,0
645,71044921875;	353,0;	0,0;	0,0
645,7730102539062;	368,75;	0,0;	0,0
645,8356323242188;	338,5;	0,0;	0,0
645,898193359375;	362,25;	0,0;	0,0
645,960693359375;	356,0;	0,0;	0,0
646,0232543945312;	343,0;	0,0;	0,0
646,0858154296875;	348,75;	0,0;	0,0
646,1482543945312;	416,75;	0,0;	0,0
646,2107543945312;	530,5;	0,0;	0,0
646,273193359375;	713,5;	0,0;	0,0
646,335693359375;	634,0;	0,0;	0,0
646,3980712890625;	380,25;	0,0;	0,0
646,4605712890625;	346,75;	0,0;	0,0
646,5228881835938;	366,75;	0,0;	0,0
646,5853881835938;	318,75;	0,0;	0,0
646,647705078125;	321,5;	0,0;	0,0
646,7100830078125;	326,0;	0,0;	0,0
646,7724609375;	364,75;	0,0;	0,0
646,834716796875;	358,75;	0,0;	0,0
646,8970947265625;	346,25;	0,0;	0,0
646,9594116210938;	359,25;	0,0;	0,0
647,0216064453125;	364,0;	0,0;	0,0
647,083984375;	371,75;	0,0;	0,0
647,146240234375;	392,75;	0,0;	0,0
647,2084350585938;	387,0;	0,0;	0,0
647,2706909179688;	363,5;	0,0;	0,0
647,3329467773438;	318,0;	0,0;	0,0
647,3950805664062;	327,25;	0,0;	0,0
647,4573364257812;	363,25;	0,0;	0,0
647,5194702148438;	341,0;	0,0;	0,0
647,5816040039062;	355,25;	0,0;	0,0
647,6437377929688;	344,5;	0,0;	0,0
647,7058715820312;	327,0;	0,0;	0,0
647,7680053710938;	347,0;	0,0;	0,0
647,830078125;	341,5;	0,0;	0,0
647,89208984375;	352,0;	0,0;	0,0
647,9541625976562;	346,25;	0,0;	0,0
648,0162353515625;	358,5;	0,0;	0,0
648,0783081054688;	328,0;	0,0;	0,0
648,1403198242188;	350,75;	0,0;	0,0
648,2023315429688;	367,5;	0,0;	0,0
648,2642822265625;	344,5;	0,0;	0,0
648,3262939453125;	363,25;	0,0;	0,0
648,3882446289062;	358,0;	0,0;	0,0
648,4501342773438;	344,25;	0,0;	0,0
648,5120849609375;	367,25;	0,0;	0,0
648,5740356445312;	360,75;	0,0;	0,0
648,6358642578125;	366,5;	0,0;	0,0
648,6978149414062;	386,0;	0,0;	0,0
648,7596435546875;	338,5;	0,0;	0,0
648,8214721679688;	367,0;	0,0;	0,0
648,8833618164062;	392,75;	0,0;	0,0
648,9451293945312;	364,75;	0,0;	0,0
649,0069580078125;	366,0;	0,0;	0,0
649,0687866210938;	365,75;	0,0;	0,0
649,1305541992188;	358,5;	0,0;	0,0
649,1923217773438;	367,75;	0,0;	0,0
649,2540893554688;	401,75;	0,0;	0,0
649,3157348632812;	410,5;	0,0;	0,0
649,3775024414062;	536,75;	0,0;	0,0
649,439208984375;	709,75;	0,0;	0,0
649,5009155273438;	773,25;	0,0;	0,0
649,5626220703125;	754,75;	0,0;	0,0
649,624267578125;	463,25;	0,0;	0,0
649,6858520507812;	445,25;	0,0;	0,0
649,7474975585938;	458,25;	0,0;	0,0
649,8091430664062;	377,0;	0,0;	0,0
649,8707275390625;	380,75;	0,0;	0,0
649,9322509765625;	395,0;	0,0;	0,0
649,9938354492188;	408,0;	0,0;	0,0
650,055419921875;	361,5;	0,0;	0,0
650,116943359375;	329,5;	0,0;	0,0
650,1784057617188;	353,25;	0,0;	0,0
650,239990234375;	343,0;	0,0;	0,0
650,3014526367188;	368,5;	0,0;	0,0
650,3629150390625;	383,75;	0,0;	0,0
650,4244384765625;	360,75;	0,0;	0,0
650,48583984375;	361,5;	0,0;	0,0
650,5472412109375;	349,0;	0,0;	0,0
650,608642578125;	367,75;	0,0;	0,0
650,6701049804688;	330,75;	0,0;	0,0
650,7314453125;	353,75;	0,0;	0,0
650,7928466796875;	382,75;	0,0;	0,0
650,8541870117188;	318,0;	0,0;	0,0
650,91552734375;	352,75;	0,0;	0,0
650,9768676757812;	330,25;	0,0;	0,0
651,0382080078125;	325,75;	0,0;	0,0
651,0994262695312;	336,25;	0,0;	0,0
651,1607666015625;	323,5;	0,0;	0,0
651,2219848632812;	342,25;	0,0;	0,0
651,2832641601562;	345,5;	0,0;	0,0
651,344482421875;	334,75;	0,0;	0,0
651,4056396484375;	333,5;	0,0;	0,0
651,4669189453125;	303,25;	0,0;	0,0
651,5281372070312;	338,5;	0,0;	0,0
651,5892333984375;	346,25;	0,0;	0,0
651,6504516601562;	311,75;	0,0;	0,0
651,7116088867188;	332,25;	0,0;	0,0
651,7726440429688;	347,0;	0,0;	0,0
651,8338623046875;	342,75;	0,0;	0,0
651,8949584960938;	375,0;	0,0;	0,0
651,9559936523438;	335,75;	0,0;	0,0
652,0170288085938;	322,5;	0,0;	0,0
652,078125;	314,0;	0,0;	0,0
652,13916015625;	357,75;	0,0;	0,0
652,2001953125;	361,0;	0,0;	0,0
652,2611083984375;	346,75;	0,0;	0,0
652,3221435546875;	358,25;	0,0;	0,0
652,3831176757812;	349,0;	0,0;	0,0
652,4440307617188;	334,25;	0,0;	0,0
652,5050048828125;	357,0;	0,0;	0,0
652,5659790039062;	347,25;	0,0;	0,0
652,6268920898438;	351,0;	0,0;	0,0
652,6878051757812;	359,5;	0,0;	0,0
652,7487182617188;	358,0;	0,0;	0,0
652,8095092773438;	341,0;	0,0;	0,0
652,8704223632812;	321,5;	0,0;	0,0
652,9312744140625;	347,0;	0,0;	0,0
652,9920654296875;	336,25;	0,0;	0,0
653,0528564453125;	329,0;	0,0;	0,0
653,1137084960938;	324,5;	0,0;	0,0
653,1744384765625;	337,75;	0,0;	0,0
653,2351684570312;	348,5;	0,0;	0,0
653,2958984375;	329,0;	0,0;	0,0
653,3566284179688;	347,5;	0,0;	0,0
653,4174194335938;	362,75;	0,0;	0,0
653,4780883789062;	355,75;	0,0;	0,0
653,5387573242188;	354,25;	0,0;	0,0
653,5994873046875;	344,0;	0,0;	0,0
653,6600341796875;	345,25;	0,0;	0,0
653,720703125;	348,75;	0,0;	0,0
653,7813720703125;	375,25;	0,0;	0,0
653,8419799804688;	351,5;	0,0;	0,0
653,9025268554688;	357,5;	0,0;	0,0
653,9631958007812;	365,5;	0,0;	0,0
654,0237426757812;	350,25;	0,0;	0,0
654,084228515625;	392,5;	0,0;	0,0
654,1448364257812;	365,75;	0,0;	0,0
654,205322265625;	364,75;	0,0;	0,0
654,2658081054688;	347,75;	0,0;	0,0
654,3262939453125;	366,5;	0,0;	0,0
654,3867797851562;	367,25;	0,0;	0,0
654,447265625;	386,25;	0,0;	0,0
654,5076904296875;	411,25;	0,0;	0,0
654,568115234375;	431,25;	0,0;	0,0
654,6285400390625;	479,25;	0,0;	0,0
654,6889038085938;	443,5;	0,0;	0,0
654,7493286132812;	412,5;	0,0;	0,0
654,8096923828125;	422,0;	0,0;	0,0
654,8699951171875;	432,0;	0,0;	0,0
654,9303588867188;	421,0;	0,0;	0,0
654,99072265625;	419,25;	0,0;	0,0
655,0509643554688;	464,25;	0,0;	0,0
655,111328125;	438,5;	0,0;	0,0
655,1715698242188;	439,0;	0,0;	0,0
655,2317504882812;	457,5;	0,0;	0,0
655,2920532226562;	490,0;	0,0;	0,0
655,3522338867188;	473,0;	0,0;	0,0
655,4124755859375;	482,75;	0,0;	0,0
655,4727172851562;	513,5;	0,0;	0,0
655,5328369140625;	489,25;	0,0;	0,0
655,593017578125;	524,5;	0,0;	0,0
655,6531982421875;	593,5;	0,0;	0,0
655,7133178710938;	585,25;	0,0;	0,0
655,7734375;	631,25;	0,0;	0,0
655,8335571289062;	656,0;	0,0;	0,0
655,8936157226562;	638,75;	0,0;	0,0
655,9537353515625;	719,75;	0,0;	0,0
656,0138549804688;	737,0;	0,0;	0,0
656,0738525390625;	790,0;	0,0;	0,0
656,1339111328125;	864,5;	0,0;	0,0
656,1939086914062;	893,25;	0,0;	0,0
656,2538452148438;	971,25;	0,0;	0,0
656,3139038085938;	980,5;	0,0;	0,0
656,373779296875;	900,5;	0,0;	0,0
656,4337768554688;	878,25;	0,0;	0,0
656,4937133789062;	856,5;	0,0;	0,0
656,5537109375;	846,0;	0,0;	0,0
656,613525390625;	737,25;	0,0;	0,0
656,6734619140625;	748,75;	0,0;	0,0
656,7333374023438;	706,5;	0,0;	0,0
656,793212890625;	649,25;	0,0;	0,0
656,8530883789062;	649,5;	0,0;	0,0
656,9129028320312;	604,5;	0,0;	0,0
656,97265625;	611,75;	0,0;	0,0
657,032470703125;	529,75;	0,0;	0,0
657,0922241210938;	543,0;	0,0;	0,0
657,1520385742188;	518,25;	0,0;	0,0
657,2118530273438;	487,25;	0,0;	0,0
657,2715454101562;	490,25;	0,0;	0,0
657,3312377929688;	486,75;	0,0;	0,0
657,3909912109375;	475,0;	0,0;	0,0
657,45068359375;	448,5;	0,0;	0,0
657,5103149414062;	470,5;	0,0;	0,0
657,5700073242188;	434,5;	0,0;	0,0
657,629638671875;	465,75;	0,0;	0,0
657,6892700195312;	428,0;	0,0;	0,0
657,7488403320312;	403,75;	0,0;	0,0
657,8085327148438;	383,75;	0,0;	0,0
657,8681030273438;	365,25;	0,0;	0,0
657,9276733398438;	419,75;	0,0;	0,0
657,9871826171875;	379,5;	0,0;	0,0
658,0467529296875;	383,25;	0,0;	0,0
658,106201171875;	349,75;	0,0;	0,0
658,165771484375;	382,5;	0,0;	0,0
658,2252807617188;	374,75;	0,0;	0,0
658,2847290039062;	385,25;	0,0;	0,0
658,3441772460938;	386,5;	0,0;	0,0
658,4036865234375;	346,25;	0,0;	0,0
658,4630737304688;	377,25;	0,0;	0,0
658,5225830078125;	358,25;	0,0;	0,0
658,5819702148438;	369,5;	0,0;	0,0
658,6412963867188;	335,25;	0,0;	0,0
658,70068359375;	359,5;	0,0;	0,0
658,760009765625;	354,0;	0,0;	0,0
658,8193359375;	371,5;	0,0;	0,0
658,8787231445312;	346,25;	0,0;	0,0
658,93798828125;	364,5;	0,0;	0,0
658,997314453125;	343,25;	0,0;	0,0
659,0565795898438;	338,5;	0,0;	0,0
659,1157836914062;	363,75;	0,0;	0,0
659,1751098632812;	357,5;	0,0;	0,0
659,234375;	437,75;	0,0;	0,0
659,2935180664062;	522,5;	0,0;	0,0
659,3527221679688;	460,75;	0,0;	0,0
659,4119262695312;	391,75;	0,0;	0,0
659,4710693359375;	342,75;	0,0;	0,0
659,5302124023438;	325,25;	0,0;	0,0
659,5894165039062;	362,25;	0,0;	0,0
659,6484985351562;	304,75;	0,0;	0,0
659,7076416015625;	336,25;	0,0;	0,0
659,7666625976562;	352,75;	0,0;	0,0
659,8257446289062;	346,0;	0,0;	0,0
659,8848266601562;	352,0;	0,0;	0,0
659,94384765625;	341,75;	0,0;	0,0
660,0029296875;	344,0;	0,0;	0,0
660,0619506835938;	316,25;	0,0;	0,0
660,1209106445312;	323,0;	0,0;	0,0
660,179931640625;	318,0;	0,0;	0,0
660,2389526367188;	341,25;	0,0;	0,0
660,2978515625;	333,0;	0,0;	0,0
660,3568115234375;	352,0;	0,0;	0,0
660,415771484375;	323,5;	0,0;	0,0
660,474609375;	342,0;	0,0;	0,0
660,5335693359375;	339,5;	0,0;	0,0
660,5924072265625;	317,5;	0,0;	0,0
660,6512451171875;	298,5;	0,0;	0,0
660,7101440429688;	326,75;	0,0;	0,0
660,7689208984375;	312,5;	0,0;	0,0
660,8277587890625;	338,25;	0,0;	0,0
660,8865966796875;	306,25;	0,0;	0,0
660,9453125;	341,75;	0,0;	0,0
661,004150390625;	325,75;	0,0;	0,0
661,0628662109375;	332,25;	0,0;	0,0
661,12158203125;	310,0;	0,0;	0,0
661,1802978515625;	339,5;	0,0;	0,0
661,2390747070312;	290,75;	0,0;	0,0
661,2976684570312;	292,75;	0,0;	0,0
661,3564453125;	327,5;	0,0;	0,0
661,4151000976562;	297,0;	0,0;	0,0
661,4737548828125;	308,75;	0,0;	0,0
661,5323486328125;	323,75;	0,0;	0,0
661,5909423828125;	333,75;	0,0;	0,0
661,6495361328125;	334,75;	0,0;	0,0
661,7081298828125;	326,0;	0,0;	0,0
661,7667236328125;	317,75;	0,0;	0,0
661,8252563476562;	325,25;	0,0;	0,0
661,8837890625;	332,75;	0,0;	0,0
661,9422607421875;	305,25;	0,0;	0,0
662,0008544921875;	302,5;	0,0;	0,0
662,0593872070312;	304,75;	0,0;	0,0
662,1177978515625;	335,0;	0,0;	0,0
662,17626953125;	328,25;	0,0;	0,0
662,2346801757812;	314,5;	0,0;	0,0
662,2930908203125;	324,25;	0,0;	0,0
662,3515625;	353,75;	0,0;	0,0
662,4099731445312;	345,0;	0,0;	0,0
662,4683227539062;	323,5;	0,0;	0,0
662,5267333984375;	334,25;	0,0;	0,0
662,5850830078125;	334,0;	0,0;	0,0
662,6433715820312;	313,75;	0,0;	0,0
662,7017211914062;	344,0;	0,0;	0,0
662,760009765625;	308,75;	0,0;	0,0
662,8182983398438;	341,5;	0,0;	0,0
662,8765869140625;	325,0;	0,0;	0,0
662,9348754882812;	329,75;	0,0;	0,0
662,9930419921875;	323,0;	0,0;	0,0
663,0513305664062;	303,75;	0,0;	0,0
663,1094970703125;	310,25;	0,0;	0,0
663,167724609375;	301,0;	0,0;	0,0
663,2259521484375;	335,25;	0,0;	0,0
663,2840576171875;	322,0;	0,0;	0,0
663,3421630859375;	347,75;	0,0;	0,0
663,400390625;	341,5;	0,0;	0,0
663,4584350585938;	339,0;	0,0;	0,0
663,5166015625;	321,5;	0,0;	0,0
663,5746459960938;	307,5;	0,0;	0,0
663,6327514648438;	315,25;	0,0;	0,0
663,6907348632812;	332,25;	0,0;	0,0
663,7488403320312;	321,0;	0,0;	0,0
663,806884765625;	341,25;	0,0;	0,0
663,8648681640625;	312,75;	0,0;	0,0
663,9229125976562;	316,5;	0,0;	0,0
663,9808349609375;	322,5;	0,0;	0,0
664,038818359375;	340,0;	0,0;	0,0
664,0966796875;	309,5;	0,0;	0,0
664,1546630859375;	331,75;	0,0;	0,0
664,2125854492188;	313,75;	0,0;	0,0
664,2705078125;	318,25;	0,0;	0,0
664,328369140625;	316,0;	0,0;	0,0
664,38623046875;	339,25;	0,0;	0,0
664,444091796875;	339,75;	0,0;	0,0
664,501953125;	335,25;	0,0;	0,0
664,5597534179688;	353,5;	0,0;	0,0
664,6175537109375;	325,0;	0,0;	0,0
664,6753540039062;	326,0;	0,0;	0,0
664,733154296875;	344,75;	0,0;	0,0
664,7908935546875;	307,5;	0,0;	0,0
664,8486938476562;	340,75;	0,0;	0,0
664,9064331054688;	322,5;	0,0;	0,0
664,964111328125;	360,0;	0,0;	0,0
665,0217895507812;	353,25;	0,0;	0,0
665,0794677734375;	326,75;	0,0;	0,0
665,1371459960938;	339,25;	0,0;	0,0
665,1947631835938;	313,25;	0,0;	0,0
665,2523803710938;	316,0;	0,0;	0,0
665,3099975585938;	347,0;	0,0;	0,0
665,36767578125;	323,75;	0,0;	0,0
665,4252319335938;	321,5;	0,0;	0,0
665,4827880859375;	345,0;	0,0;	0,0
665,5404052734375;	324,0;	0,0;	0,0
665,597900390625;	311,0;	0,0;	0,0
665,6554565429688;	319,25;	0,0;	0,0
665,7130126953125;	324,25;	0,0;	0,0
665,7704467773438;	345,5;	0,0;	0,0
665,8279418945312;	339,0;	0,0;	0,0
665,8854370117188;	298,0;	0,0;	0,0
665,9428100585938;	349,5;	0,0;	0,0
666,0003051757812;	326,5;	0,0;	0,0
666,0576782226562;	343,25;	0,0;	0,0
666,1150512695312;	348,0;	0,0;	0,0
666,1724853515625;	346,5;	0,0;	0,0
666,2298583984375;	344,25;	0,0;	0,0
666,2871704101562;	336,25;	0,0;	0,0
666,3446044921875;	360,5;	0,0;	0,0
666,4019165039062;	346,5;	0,0;	0,0
666,4591674804688;	313,75;	0,0;	0,0
666,5165405273438;	313,0;	0,0;	0,0
666,57373046875;	340,5;	0,0;	0,0
666,6310424804688;	321,25;	0,0;	0,0
666,6882934570312;	323,25;	0,0;	0,0
666,7454833984375;	330,75;	0,0;	0,0
666,802734375;	343,0;	0,0;	0,0
666,8599243164062;	315,25;	0,0;	0,0
666,9171142578125;	300,5;	0,0;	0,0
666,9742431640625;	344,5;	0,0;	0,0
667,0314331054688;	326,25;	0,0;	0,0
667,0885620117188;	333,5;	0,0;	0,0
667,1456909179688;	324,5;	0,0;	0,0
667,2026977539062;	334,75;	0,0;	0,0
667,2598876953125;	327,25;	0,0;	0,0
667,3169555664062;	333,5;	0,0;	0,0
667,3739624023438;	321,25;	0,0;	0,0
667,4310302734375;	316,75;	0,0;	0,0
667,488037109375;	302,75;	0,0;	0,0
667,5451049804688;	317,5;	0,0;	0,0
667,6021118164062;	313,75;	0,0;	0,0
667,6591186523438;	347,0;	0,0;	0,0
667,7160034179688;	392,25;	0,0;	0,0
667,77294921875;	490,25;	0,0;	0,0
667,8299560546875;	507,75;	0,0;	0,0
667,8867797851562;	337,25;	0,0;	0,0
667,9437255859375;	333,5;	0,0;	0,0
668,0006103515625;	332,5;	0,0;	0,0
668,0574951171875;	319,5;	0,0;	0,0
668,1143798828125;	334,75;	0,0;	0,0
668,171142578125;	309,5;	0,0;	0,0
668,2279663085938;	305,25;	0,0;	0,0
668,2847900390625;	318,75;	0,0;	0,0
668,341552734375;	321,75;	0,0;	0,0
668,3983764648438;	302,75;	0,0;	0,0
668,4552001953125;	309,25;	0,0;	0,0
668,5118408203125;	312,0;	0,0;	0,0
668,568603515625;	340,75;	0,0;	0,0
668,6253662109375;	322,25;	0,0;	0,0
668,6819458007812;	306,25;	0,0;	0,0
668,7387084960938;	339,5;	0,0;	0,0
668,79541015625;	314,0;	0,0;	0,0
668,8519897460938;	344,75;	0,0;	0,0
668,90869140625;	303,0;	0,0;	0,0
668,9652709960938;	342,0;	0,0;	0,0
669,0218505859375;	322,25;	0,0;	0,0
669,0784301757812;	316,0;	0,0;	0,0
669,1350708007812;	297,75;	0,0;	0,0
669,1915893554688;	346,0;	0,0;	0,0
669,2481689453125;	304,5;	0,0;	0,0
669,3046264648438;	331,0;	0,0;	0,0
669,3611450195312;	303,5;	0,0;	0,0
669,4176635742188;	303,75;	0,0;	0,0
669,47412109375;	326,0;	0,0;	0,0
669,5305786132812;	306,75;	0,0;	0,0
669,5870971679688;	299,5;	0,0;	0,0
669,6434326171875;	311,25;	0,0;	0,0
669,6998901367188;	328,25;	0,0;	0,0
669,7562866210938;	352,0;	0,0;	0,0
669,8126220703125;	333,75;	0,0;	0,0
669,8690795898438;	317,75;	0,0;	0,0
669,9254150390625;	328,5;	0,0;	0,0
669,981689453125;	306,5;	0,0;	0,0
670,0380249023438;	357,5;	0,0;	0,0
670,0943603515625;	319,25;	0,0;	0,0
670,150634765625;	332,25;	0,0;	0,0
670,2069091796875;	341,75;	0,0;	0,0
670,2631225585938;	362,25;	0,0;	0,0
670,3193969726562;	355,75;	0,0;	0,0
670,3756713867188;	363,0;	0,0;	0,0
670,4318237304688;	418,5;	0,0;	0,0
670,488037109375;	498,25;	0,0;	0,0
670,544189453125;	620,0;	0,0;	0,0
670,600341796875;	911,25;	0,0;	0,0
670,656494140625;	1840,5;	0,0;	0,0
670,7127075195312;	4442,75;	0,0;	0,0
670,768798828125;	9761,5;	0,0;	0,0
670,8248291015625;	7335,5;	0,0;	0,0
670,8809814453125;	1453,5;	0,0;	0,0
670,93701171875;	545,25;	0,0;	0,0
670,9930419921875;	409,25;	0,0;	0,0
671,0491333007812;	369,25;	0,0;	0,0
671,1051025390625;	388,25;	0,0;	0,0
671,1611328125;	383,25;	0,0;	0,0
671,2171020507812;	344,5;	0,0;	0,0
671,2730712890625;	364,5;	0,0;	0,0
671,3291015625;	355,0;	0,0;	0,0
671,3849487304688;	341,0;	0,0;	0,0
671,44091796875;	364,5;	0,0;	0,0
671,496826171875;	333,75;	0,0;	0,0
671,5526733398438;	332,25;	0,0;	0,0
671,6085815429688;	359,0;	0,0;	0,0
671,6644897460938;	361,0;	0,0;	0,0
671,7202758789062;	339,25;	0,0;	0,0
671,7761840820312;	405,75;	0,0;	0,0
671,8319702148438;	379,0;	0,0;	0,0
671,8876953125;	352,0;	0,0;	0,0
671,9435424804688;	319,0;	0,0;	0,0
671,9993286132812;	333,0;	0,0;	0,0
672,0550537109375;	323,75;	0,0;	0,0
672,1107788085938;	347,5;	0,0;	0,0
672,16650390625;	350,0;	0,0;	0,0
672,22216796875;	341,0;	0,0;	0,0
672,2778930664062;	334,0;	0,0;	0,0
672,3335571289062;	368,75;	0,0;	0,0
672,3892211914062;	347,75;	0,0;	0,0
672,4448852539062;	297,0;	0,0;	0,0
672,50048828125;	312,0;	0,0;	0,0
672,5560913085938;	328,5;	0,0;	0,0
672,6116943359375;	342,25;	0,0;	0,0
672,6672973632812;	330,75;	0,0;	0,0
672,7228393554688;	330,0;	0,0;	0,0
672,7783813476562;	315,5;	0,0;	0,0
672,8338623046875;	313,25;	0,0;	0,0
672,889404296875;	324,0;	0,0;	0,0
672,9449462890625;	314,75;	0,0;	0,0
673,0003662109375;	336,0;	0,0;	0,0
673,0558471679688;	310,75;	0,0;	0,0
673,111328125;	335,5;	0,0;	0,0
673,166748046875;	335,0;	0,0;	0,0
673,22216796875;	342,75;	0,0;	0,0
673,277587890625;	349,0;	0,0;	0,0
673,3329467773438;	336,25;	0,0;	0,0
673,3883666992188;	322,75;	0,0;	0,0
673,4436645507812;	339,0;	0,0;	0,0
673,4990234375;	323,25;	0,0;	0,0
673,5543823242188;	313,0;	0,0;	0,0
673,6096801757812;	325,0;	0,0;	0,0
673,6649780273438;	322,75;	0,0;	0,0
673,72021484375;	307,0;	0,0;	0,0
673,7755126953125;	324,5;	0,0;	0,0
673,8307495117188;	314,5;	0,0;	0,0
673,885986328125;	325,0;	0,0;	0,0
673,9412231445312;	337,25;	0,0;	0,0
673,9963989257812;	322,0;	0,0;	0,0
674,051513671875;	336,25;	0,0;	0,0
674,106689453125;	337,75;	0,0;	0,0
674,161865234375;	312,5;	0,0;	0,0
674,2169799804688;	319,5;	0,0;	0,0
674,2721557617188;	312,0;	0,0;	0,0
674,3272705078125;	319,5;	0,0;	0,0
674,38232421875;	308,75;	0,0;	0,0
674,4373779296875;	321,75;	0,0;	0,0
674,4924926757812;	308,25;	0,0;	0,0
674,5474853515625;	316,5;	0,0;	0,0
674,6025390625;	345,75;	0,0;	0,0
674,6575317382812;	316,75;	0,0;	0,0
674,7124633789062;	323,75;	0,0;	0,0
674,7674560546875;	324,0;	0,0;	0,0
674,8224487304688;	314,75;	0,0;	0,0
674,8773803710938;	330,25;	0,0;	0,0
674,9323120117188;	325,75;	0,0;	0,0
674,9871826171875;	334,25;	0,0;	0,0
675,0420532226562;	330,5;	0,0;	0,0
675,0969848632812;	327,75;	0,0;	0,0
675,15185546875;	310,0;	0,0;	0,0
675,2066650390625;	338,25;	0,0;	0,0
675,2615356445312;	305,5;	0,0;	0,0
675,3162841796875;	324,25;	0,0;	0,0
675,3711547851562;	293,25;	0,0;	0,0
675,4259033203125;	311,0;	0,0;	0,0
675,4806518554688;	317,0;	0,0;	0,0
675,535400390625;	312,75;	0,0;	0,0
675,5902099609375;	324,5;	0,0;	0,0
675,6448364257812;	314,0;	0,0;	0,0
675,6996459960938;	317,0;	0,0;	0,0
675,7543334960938;	297,5;	0,0;	0,0
675,8088989257812;	327,75;	0,0;	0,0
675,8636474609375;	300,25;	0,0;	0,0
675,9182739257812;	296,5;	0,0;	0,0
675,9728393554688;	323,0;	0,0;	0,0
676,0274658203125;	325,75;	0,0;	0,0
676,0820922851562;	311,25;	0,0;	0,0
676,1366577148438;	292,0;	0,0;	0,0
676,1912231445312;	300,25;	0,0;	0,0
676,2457275390625;	339,0;	0,0;	0,0
676,30029296875;	334,75;	0,0;	0,0
676,3547973632812;	323,5;	0,0;	0,0
676,4092407226562;	301,0;	0,0;	0,0
676,4637451171875;	302,5;	0,0;	0,0
676,5182495117188;	295,5;	0,0;	0,0
676,5726928710938;	305,75;	0,0;	0,0
676,6271362304688;	295,25;	0,0;	0,0
676,6815795898438;	294,5;	0,0;	0,0
676,7359619140625;	296,25;	0,0;	0,0
676,790283203125;	305,25;	0,0;	0,0
676,8447265625;	315,75;	0,0;	0,0
676,8990478515625;	331,0;	0,0;	0,0
676,9534301757812;	308,75;	0,0;	0,0
677,0076904296875;	295,0;	0,0;	0,0
677,06201171875;	309,5;	0,0;	0,0
677,1163330078125;	313,75;	0,0;	0,0
677,1705322265625;	318,0;	0,0;	0,0
677,2247924804688;	297,25;	0,0;	0,0
677,279052734375;	287,0;	0,0;	0,0
677,333251953125;	300,75;	0,0;	0,0
677,3875122070312;	311,25;	0,0;	0,0
677,4417114257812;	301,5;	0,0;	0,0
677,4957885742188;	323,0;	0,0;	0,0
677,550048828125;	321,0;	0,0;	0,0
677,6041870117188;	296,75;	0,0;	0,0
677,6583251953125;	321,5;	0,0;	0,0
677,71240234375;	299,75;	0,0;	0,0
677,7665405273438;	307,0;	0,0;	0,0
677,8206176757812;	295,0;	0,0;	0,0
677,8746948242188;	301,75;	0,0;	0,0
677,9287109375;	297,25;	0,0;	0,0
677,9827270507812;	316,75;	0,0;	0,0
678,0367431640625;	295,5;	0,0;	0,0
678,0906982421875;	312,5;	0,0;	0,0
678,144775390625;	307,25;	0,0;	0,0
678,19873046875;	297,0;	0,0;	0,0
678,2526245117188;	305,25;	0,0;	0,0
678,3065795898438;	303,75;	0,0;	0,0
678,3605346679688;	281,75;	0,0;	0,0
678,4144287109375;	289,0;	0,0;	0,0
678,4683227539062;	309,0;	0,0;	0,0
678,5221557617188;	296,0;	0,0;	0,0
678,5759887695312;	293,75;	0,0;	0,0
678,6298828125;	276,25;	0,0;	0,0
678,6837158203125;	286,0;	0,0;	0,0
678,7374877929688;	309,5;	0,0;	0,0
678,791259765625;	293,5;	0,0;	0,0
678,8450927734375;	297,25;	0,0;	0,0
678,8988037109375;	307,0;	0,0;	0,0
678,9525756835938;	309,0;	0,0;	0,0
679,0062866210938;	312,25;	0,0;	0,0
679,0599975585938;	308,75;	0,0;	0,0
679,1137084960938;	293,5;	0,0;	0,0
679,1674194335938;	309,0;	0,0;	0,0
679,2210083007812;	278,5;	0,0;	0,0
679,2747192382812;	298,0;	0,0;	0,0
679,3283081054688;	313,25;	0,0;	0,0
679,3819580078125;	304,25;	0,0;	0,0
679,435546875;	315,0;	0,0;	0,0
679,4890747070312;	301,25;	0,0;	0,0
679,542724609375;	306,0;	0,0;	0,0
679,5962524414062;	279,5;	0,0;	0,0
679,6497192382812;	288,0;	0,0;	0,0
679,7032470703125;	299,0;	0,0;	0,0
679,7568359375;	269,0;	0,0;	0,0
679,810302734375;	287,5;	0,0;	0,0
679,86376953125;	311,75;	0,0;	0,0
679,9171752929688;	304,5;	0,0;	0,0
679,9706420898438;	292,0;	0,0;	0,0
680,0240478515625;	291,5;	0,0;	0,0
680,0775146484375;	295,25;	0,0;	0,0
680,130859375;	308,25;	0,0;	0,0
680,1842651367188;	305,75;	0,0;	0,0
680,237548828125;	302,0;	0,0;	0,0
680,2909545898438;	300,25;	0,0;	0,0
680,3442993164062;	294,5;	0,0;	0,0
680,3975830078125;	299,5;	0,0;	0,0
680,4508666992188;	311,25;	0,0;	0,0
680,504150390625;	287,5;	0,0;	0,0
680,557373046875;	291,0;	0,0;	0,0
680,6106567382812;	265,75;	0,0;	0,0
680,6639404296875;	310,75;	0,0;	0,0
680,717041015625;	311,5;	0,0;	0,0
680,7703247070312;	293,25;	0,0;	0,0
680,8234252929688;	299,5;	0,0;	0,0
680,8766479492188;	298,75;	0,0;	0,0
680,9297485351562;	280,25;	0,0;	0,0
680,9829711914062;	313,25;	0,0;	0,0
681,0360107421875;	325,0;	0,0;	0,0
681,0891723632812;	321,25;	0,0;	0,0
681,1421508789062;	297,25;	0,0;	0,0
681,1953125;	301,5;	0,0;	0,0
681,2483520507812;	307,0;	0,0;	0,0
681,3013305664062;	322,5;	0,0;	0,0
681,3544311523438;	311,5;	0,0;	0,0
681,4074096679688;	302,5;	0,0;	0,0
681,4603271484375;	307,75;	0,0;	0,0
681,5133056640625;	280,5;	0,0;	0,0
681,5662841796875;	305,25;	0,0;	0,0
681,6192626953125;	291,75;	0,0;	0,0
681,6721801757812;	298,75;	0,0;	0,0
681,72509765625;	287,25;	0,0;	0,0
681,7779541015625;	276,25;	0,0;	0,0
681,8308715820312;	294,5;	0,0;	0,0
681,8837280273438;	274,25;	0,0;	0,0
681,9365234375;	286,25;	0,0;	0,0
681,9893798828125;	278,5;	0,0;	0,0
682,0421142578125;	277,5;	0,0;	0,0
682,0949096679688;	291,75;	0,0;	0,0
682,1477661132812;	296,0;	0,0;	0,0
682,2005004882812;	293,0;	0,0;	0,0
682,2532958984375;	255,75;	0,0;	0,0
682,3059692382812;	307,75;	0,0;	0,0
682,358642578125;	285,25;	0,0;	0,0
682,411376953125;	270,5;	0,0;	0,0
682,4640502929688;	284,0;	0,0;	0,0
682,5167236328125;	283,75;	0,0;	0,0
682,5693359375;	293,25;	0,0;	0,0
682,6220092773438;	311,5;	0,0;	0,0
682,674560546875;	301,75;	0,0;	0,0
682,7272338867188;	298,0;	0,0;	0,0
682,77978515625;	298,75;	0,0;	0,0
682,8323974609375;	329,5;	0,0;	0,0
682,8849487304688;	302,75;	0,0;	0,0
682,9373779296875;	320,25;	0,0;	0,0
682,989990234375;	306,5;	0,0;	0,0
683,04248046875;	287,75;	0,0;	0,0
683,0949096679688;	311,75;	0,0;	0,0
683,1473999023438;	289,75;	0,0;	0,0
683,1998901367188;	291,0;	0,0;	0,0
683,2523193359375;	297,25;	0,0;	0,0
683,3047485351562;	311,25;	0,0;	0,0
683,357177734375;	311,25;	0,0;	0,0
683,4094848632812;	295,75;	0,0;	0,0
683,4619140625;	289,0;	0,0;	0,0
683,5142822265625;	294,5;	0,0;	0,0
683,5665893554688;	286,5;	0,0;	0,0
683,6189575195312;	301,0;	0,0;	0,0
683,6712646484375;	305,25;	0,0;	0,0
683,7235107421875;	325,0;	0,0;	0,0
683,7757568359375;	279,25;	0,0;	0,0
683,8280029296875;	295,75;	0,0;	0,0
683,8803100585938;	307,5;	0,0;	0,0
683,9325561523438;	292,5;	0,0;	0,0
683,9846801757812;	314,5;	0,0;	0,0
684,0369262695312;	336,0;	0,0;	0,0
684,0891723632812;	307,25;	0,0;	0,0
684,1412353515625;	338,75;	0,0;	0,0
684,1934204101562;	316,75;	0,0;	0,0
684,2455444335938;	296,25;	0,0;	0,0
684,2976684570312;	326,5;	0,0;	0,0
684,3497314453125;	346,0;	0,0;	0,0
684,40185546875;	294,25;	0,0;	0,0
684,453857421875;	320,25;	0,0;	0,0
684,5059204101562;	280,5;	0,0;	0,0
684,5579833984375;	305,25;	0,0;	0,0
684,6099853515625;	282,5;	0,0;	0,0
684,6619873046875;	298,0;	0,0;	0,0
684,7139892578125;	277,5;	0,0;	0,0
684,7659301757812;	315,75;	0,0;	0,0
684,8179321289062;	305,0;	0,0;	0,0
684,869873046875;	294,25;	0,0;	0,0
684,9216918945312;	278,5;	0,0;	0,0
684,9736328125;	299,25;	0,0;	0,0
685,0255126953125;	279,25;	0,0;	0,0
685,077392578125;	323,0;	0,0;	0,0
685,1292724609375;	277,5;	0,0;	0,0
685,1810302734375;	294,25;	0,0;	0,0
685,23291015625;	311,0;	0,0;	0,0
685,2847290039062;	316,5;	0,0;	0,0
685,3364868164062;	282,0;	0,0;	0,0
685,3882446289062;	313,75;	0,0;	0,0
685,4400024414062;	311,5;	0,0;	0,0
685,4917602539062;	330,0;	0,0;	0,0
685,5435180664062;	300,75;	0,0;	0,0
685,5951538085938;	308,0;	0,0;	0,0
685,6468505859375;	315,25;	0,0;	0,0
685,6985473632812;	312,75;	0,0;	0,0
685,750244140625;	297,0;	0,0;	0,0
685,8018798828125;	327,25;	0,0;	0,0
685,8534545898438;	321,0;	0,0;	0,0
685,905029296875;	308,5;	0,0;	0,0
685,9566650390625;	292,75;	0,0;	0,0
686,0082397460938;	308,0;	0,0;	0,0
686,059814453125;	286,5;	0,0;	0,0
686,111328125;	307,5;	0,0;	0,0
686,162841796875;	285,75;	0,0;	0,0
686,21435546875;	306,25;	0,0;	0,0
686,265869140625;	320,0;	0,0;	0,0
686,3173828125;	303,75;	0,0;	0,0
686,3687744140625;	302,75;	0,0;	0,0
686,4202270507812;	294,75;	0,0;	0,0
686,4716186523438;	289,5;	0,0;	0,0
686,5230712890625;	277,0;	0,0;	0,0
686,574462890625;	280,75;	0,0;	0,0
686,6258544921875;	275,75;	0,0;	0,0
686,6771850585938;	266,75;	0,0;	0,0
686,7285766601562;	301,25;	0,0;	0,0
686,7799072265625;	279,5;	0,0;	0,0
686,8312377929688;	328,75;	0,0;	0,0
686,882568359375;	288,75;	0,0;	0,0
686,9337768554688;	281,75;	0,0;	0,0
686,9850463867188;	315,0;	0,0;	0,0
687,0363159179688;	288,25;	0,0;	0,0
687,0875244140625;	287,25;	0,0;	0,0
687,1387329101562;	284,75;	0,0;	0,0
687,1900024414062;	279,75;	0,0;	0,0
687,2410888671875;	273,5;	0,0;	0,0
687,2922973632812;	298,0;	0,0;	0,0
687,3434448242188;	295,0;	0,0;	0,0
687,3945922851562;	291,25;	0,0;	0,0
687,4457397460938;	285,75;	0,0;	0,0
687,4968872070312;	297,25;	0,0;	0,0
687,5479125976562;	281,0;	0,0;	0,0
687,5989379882812;	287,5;	0,0;	0,0
687,6500244140625;	281,0;	0,0;	0,0
687,7010498046875;	298,75;	0,0;	0,0
687,7520751953125;	303,5;	0,0;	0,0
687,8030395507812;	301,0;	0,0;	0,0
687,8540649414062;	298,25;	0,0;	0,0
687,905029296875;	291,5;	0,0;	0,0
687,9559936523438;	303,75;	0,0;	0,0
688,0069580078125;	302,25;	0,0;	0,0
688,0579223632812;	311,5;	0,0;	0,0
688,1087646484375;	327,0;	0,0;	0,0
688,1596069335938;	305,25;	0,0;	0,0
688,2105102539062;	288,25;	0,0;	0,0
688,2613525390625;	273,0;	0,0;	0,0
688,3121948242188;	283,25;	0,0;	0,0
688,3630981445312;	295,0;	0,0;	0,0
688,4138793945312;	297,0;	0,0;	0,0
688,464599609375;	309,0;	0,0;	0,0
688,515380859375;	293,0;	0,0;	0,0
688,566162109375;	309,0;	0,0;	0,0
688,6168823242188;	298,5;	0,0;	0,0
688,6676025390625;	289,5;	0,0;	0,0
688,7183227539062;	295,5;	0,0;	0,0
688,76904296875;	282,5;	0,0;	0,0
688,8196411132812;	270,0;	0,0;	0,0
688,870361328125;	283,75;	0,0;	0,0
688,9210205078125;	274,75;	0,0;	0,0
688,9716186523438;	282,25;	0,0;	0,0
689,0222778320312;	285,75;	0,0;	0,0
689,0728149414062;	290,0;	0,0;	0,0
689,1234130859375;	294,75;	0,0;	0,0
689,1740112304688;	273,75;	0,0;	0,0
689,2245483398438;	292,0;	0,0;	0,0
689,2750244140625;	292,75;	0,0;	0,0
689,3255615234375;	300,0;	0,0;	0,0
689,3759765625;	270,75;	0,0;	0,0
689,426513671875;	287,75;	0,0;	0,0
689,4769897460938;	303,5;	0,0;	0,0
689,5274658203125;	307,75;	0,0;	0,0
689,5778198242188;	284,5;	0,0;	0,0
689,6282958984375;	278,75;	0,0;	0,0
689,6786499023438;	307,75;	0,0;	0,0
689,7290649414062;	305,25;	0,0;	0,0
689,7794799804688;	309,25;	0,0;	0,0
689,8297119140625;	323,25;	0,0;	0,0
689,8800659179688;	289,75;	0,0;	0,0
689,930419921875;	263,25;	0,0;	0,0
689,9806518554688;	284,5;	0,0;	0,0
690,031005859375;	304,5;	0,0;	0,0
690,081298828125;	287,5;	0,0;	0,0
690,1314697265625;	299,75;	0,0;	0,0
690,1817626953125;	298,0;	0,0;	0,0
690,23193359375;	321,25;	0,0;	0,0
690,2821655273438;	310,75;	0,0;	0,0
690,3323364257812;	267,75;	0,0;	0,0
690,3825073242188;	285,75;	0,0;	0,0
690,4326782226562;	276,0;	0,0;	0,0
690,4827880859375;	285,0;	0,0;	0,0
690,5328369140625;	296,75;	0,0;	0,0
690,5829467773438;	318,25;	0,0;	0,0
690,6331176757812;	281,75;	0,0;	0,0
690,6831665039062;	309,5;	0,0;	0,0
690,7332153320312;	273,5;	0,0;	0,0
690,7832641601562;	306,75;	0,0;	0,0
690,833251953125;	283,0;	0,0;	0,0
690,8832397460938;	298,25;	0,0;	0,0
690,9332885742188;	305,25;	0,0;	0,0
690,9832153320312;	329,25;	0,0;	0,0
691,033203125;	357,75;	0,0;	0,0
691,0830078125;	421,0;	0,0;	0,0
691,1329956054688;	400,5;	0,0;	0,0
691,1829223632812;	333,0;	0,0;	0,0
691,2328491210938;	292,5;	0,0;	0,0
691,2826538085938;	282,25;	0,0;	0,0
691,33251953125;	300,0;	0,0;	0,0
691,38232421875;	301,75;	0,0;	0,0
691,43212890625;	299,0;	0,0;	0,0
691,4819946289062;	290,25;	0,0;	0,0
691,53173828125;	275,0;	0,0;	0,0
691,58154296875;	305,0;	0,0;	0,0
691,6312866210938;	299,75;	0,0;	0,0
691,6810302734375;	288,5;	0,0;	0,0
691,730712890625;	310,0;	0,0;	0,0
691,7804565429688;	290,5;	0,0;	0,0
691,8301391601562;	283,0;	0,0;	0,0
691,8798217773438;	302,75;	0,0;	0,0
691,929443359375;	302,25;	0,0;	0,0
691,9790649414062;	309,0;	0,0;	0,0
692,0286865234375;	299,25;	0,0;	0,0
692,0783081054688;	283,5;	0,0;	0,0
692,1278686523438;	321,25;	0,0;	0,0
692,177490234375;	283,5;	0,0;	0,0
692,2269897460938;	285,0;	0,0;	0,0
692,2765502929688;	288,0;	0,0;	0,0
692,3261108398438;	277,25;	0,0;	0,0
692,3755493164062;	275,0;	0,0;	0,0
692,4251098632812;	277,75;	0,0;	0,0
692,474609375;	273,5;	0,0;	0,0
692,5240478515625;	286,5;	0,0;	0,0
692,5734252929688;	290,5;	0,0;	0,0
692,6229248046875;	302,0;	0,0;	0,0
692,6723022460938;	288,75;	0,0;	0,0
692,7216796875;	288,25;	0,0;	0,0
692,7711181640625;	272,25;	0,0;	0,0
692,8203735351562;	293,75;	0,0;	0,0
692,8697509765625;	291,5;	0,0;	0,0
692,9190673828125;	280,25;	0,0;	0,0
692,9683837890625;	300,0;	0,0;	0,0
693,0177001953125;	295,0;	0,0;	0,0
693,06689453125;	292,75;	0,0;	0,0
693,1162109375;	291,25;	0,0;	0,0
693,1654663085938;	297,0;	0,0;	0,0
693,214599609375;	286,5;	0,0;	0,0
693,2638549804688;	289,0;	0,0;	0,0
693,3130493164062;	300,25;	0,0;	0,0
693,3622436523438;	302,5;	0,0;	0,0
693,4114379882812;	299,0;	0,0;	0,0
693,4605712890625;	294,75;	0,0;	0,0
693,5096435546875;	293,0;	0,0;	0,0
693,5587768554688;	308,0;	0,0;	0,0
693,6078491210938;	313,25;	0,0;	0,0
693,6568603515625;	325,5;	0,0;	0,0
693,7059936523438;	347,25;	0,0;	0,0
693,7550659179688;	393,5;	0,0;	0,0
693,8040771484375;	454,0;	0,0;	0,0
693,85302734375;	555,5;	0,0;	0,0
693,9020385742188;	441,75;	0,0;	0,0
693,9510498046875;	365,0;	0,0;	0,0
694,0;	316,75;	0,0;	0,0
694,0488891601562;	301,0;	0,0;	0,0
694,0978393554688;	270,25;	0,0;	0,0
694,1467895507812;	305,25;	0,0;	0,0
694,1956176757812;	290,5;	0,0;	0,0
694,2445068359375;	281,75;	0,0;	0,0
694,2933959960938;	295,5;	0,0;	0,0
694,3421630859375;	298,5;	0,0;	0,0
694,3910522460938;	307,5;	0,0;	0,0
694,4398803710938;	326,75;	0,0;	0,0
694,4886474609375;	327,75;	0,0;	0,0
694,5374145507812;	312,25;	0,0;	0,0
694,5862426757812;	313,25;	0,0;	0,0
694,6349487304688;	291,75;	0,0;	0,0
694,6836547851562;	293,25;	0,0;	0,0
694,7323608398438;	282,25;	0,0;	0,0
694,7810668945312;	258,5;	0,0;	0,0
694,8297729492188;	321,0;	0,0;	0,0
694,8784790039062;	296,25;	0,0;	0,0
694,927001953125;	291,0;	0,0;	0,0
694,9756469726562;	273,5;	0,0;	0,0
695,0242309570312;	272,75;	0,0;	0,0
695,0728759765625;	291,5;	0,0;	0,0
695,1213989257812;	310,0;	0,0;	0,0
695,1699829101562;	286,5;	0,0;	0,0
695,2185668945312;	305,25;	0,0;	0,0
695,26708984375;	282,25;	0,0;	0,0
695,3155517578125;	302,25;	0,0;	0,0
695,3640747070312;	270,0;	0,0;	0,0
695,41259765625;	276,75;	0,0;	0,0
695,4609985351562;	276,5;	0,0;	0,0
695,5094604492188;	283,5;	0,0;	0,0
695,557861328125;	267,5;	0,0;	0,0
695,6062622070312;	266,0;	0,0;	0,0
695,6547241210938;	279,25;	0,0;	0,0
695,7030639648438;	305,75;	0,0;	0,0
695,7514038085938;	284,75;	0,0;	0,0
695,7997436523438;	291,75;	0,0;	0,0
695,8480224609375;	317,5;	0,0;	0,0
695,8963623046875;	282,5;	0,0;	0,0
695,9447021484375;	275,75;	0,0;	0,0
695,992919921875;	295,25;	0,0;	0,0
696,0411987304688;	296,25;	0,0;	0,0
696,0894775390625;	284,25;	0,0;	0,0
696,1376342773438;	292,25;	0,0;	0,0
696,1859130859375;	266,25;	0,0;	0,0
696,234130859375;	288,5;	0,0;	0,0
696,2822265625;	282,0;	0,0;	0,0
696,3304443359375;	282,5;	0,0;	0,0
696,3785400390625;	304,0;	0,0;	0,0
696,4266357421875;	297,5;	0,0;	0,0
696,4747924804688;	275,25;	0,0;	0,0
696,5228881835938;	320,0;	0,0;	0,0
696,5709838867188;	284,25;	0,0;	0,0
696,6190185546875;	282,5;	0,0;	0,0
696,6670532226562;	286,25;	0,0;	0,0
696,715087890625;	294,0;	0,0;	0,0
696,7631225585938;	287,5;	0,0;	0,0
696,8110961914062;	290,0;	0,0;	0,0
696,8590698242188;	306,25;	0,0;	0,0
696,9070434570312;	279,5;	0,0;	0,0
696,9548950195312;	274,5;	0,0;	0,0
697,0029296875;	301,75;	0,0;	0,0
697,0508422851562;	254,0;	0,0;	0,0
697,0986938476562;	267,0;	0,0;	0,0
697,1466064453125;	278,25;	0,0;	0,0
697,1943969726562;	306,75;	0,0;	0,0
697,2422485351562;	293,75;	0,0;	0,0
697,2901000976562;	280,0;	0,0;	0,0
697,337890625;	275,5;	0,0;	0,0
697,3856811523438;	327,0;	0,0;	0,0
697,4334716796875;	287,25;	0,0;	0,0
697,481201171875;	292,25;	0,0;	0,0
697,5289306640625;	290,0;	0,0;	0,0
697,5767211914062;	299,75;	0,0;	0,0
697,6243896484375;	299,0;	0,0;	0,0
697,6720581054688;	284,0;	0,0;	0,0
697,7197875976562;	300,5;	0,0;	0,0
697,7673950195312;	307,5;	0,0;	0,0
697,8150634765625;	289,75;	0,0;	0,0
697,8626708984375;	313,5;	0,0;	0,0
697,9102172851562;	291,5;	0,0;	0,0
697,9578857421875;	269,75;	0,0;	0,0
698,0054931640625;	264,25;	0,0;	0,0
698,052978515625;	303,25;	0,0;	0,0
698,1005249023438;	287,25;	0,0;	0,0
698,1481323242188;	287,25;	0,0;	0,0
698,195556640625;	301,25;	0,0;	0,0
698,2431030273438;	278,0;	0,0;	0,0
698,29052734375;	271,0;	0,0;	0,0
698,3380126953125;	304,5;	0,0;	0,0
698,3854370117188;	278,5;	0,0;	0,0
698,432861328125;	316,0;	0,0;	0,0
698,480224609375;	272,5;	0,0;	0,0
698,5276489257812;	286,0;	0,0;	0,0
698,5750122070312;	306,75;	0,0;	0,0
698,6223754882812;	269,25;	0,0;	0,0
698,669677734375;	264,5;	0,0;	0,0
698,7169799804688;	307,75;	0,0;	0,0
698,7643432617188;	287,5;	0,0;	0,0
698,8116455078125;	277,25;	0,0;	0,0
698,85888671875;	280,0;	0,0;	0,0
698,9061279296875;	313,75;	0,0;	0,0
698,9534301757812;	313,75;	0,0;	0,0
699,0006103515625;	286,75;	0,0;	0,0
699,0477905273438;	302,0;	0,0;	0,0
699,094970703125;	272,0;	0,0;	0,0
699,1421508789062;	298,25;	0,0;	0,0
699,1893310546875;	281,75;	0,0;	0,0
699,2363891601562;	278,75;	0,0;	0,0
699,2835693359375;	292,5;	0,0;	0,0
699,3306884765625;	278,5;	0,0;	0,0
699,3777465820312;	261,0;	0,0;	0,0
699,4248657226562;	288,25;	0,0;	0,0
699,471923828125;	291,75;	0,0;	0,0
699,5189208984375;	281,75;	0,0;	0,0
699,5659790039062;	286,25;	0,0;	0,0
699,6129150390625;	274,0;	0,0;	0,0
699,659912109375;	262,0;	0,0;	0,0
699,7069091796875;	281,25;	0,0;	0,0
699,75390625;	295,75;	0,0;	0,0
699,80078125;	260,0;	0,0;	0,0
699,8477172851562;	275,0;	0,0;	0,0
699,8945922851562;	298,0;	0,0;	0,0
699,9414672851562;	292,5;	0,0;	0,0
699,9884033203125;	287,25;	0,0;	0,0
700,0352172851562;	274,0;	0,0;	0,0
700,0820922851562;	256,0;	0,0;	0,0
700,12890625;	284,0;	0,0;	0,0
700,1755981445312;	277,25;	0,0;	0,0
700,2224731445312;	275,0;	0,0;	0,0
700,2692260742188;	272,0;	0,0;	0,0
700,31591796875;	273,0;	0,0;	0,0
700,3626708984375;	297,5;	0,0;	0,0
700,409423828125;	273,0;	0,0;	0,0
700,4560546875;	270,0;	0,0;	0,0
700,5027465820312;	251,5;	0,0;	0,0
700,5494384765625;	288,0;	0,0;	0,0
700,5960693359375;	281,75;	0,0;	0,0
700,6427001953125;	282,0;	0,0;	0,0
700,6893310546875;	291,0;	0,0;	0,0
700,7359619140625;	255,75;	0,0;	0,0
700,7825317382812;	278,0;	0,0;	0,0
700,8291015625;	266,75;	0,0;	0,0
700,8756103515625;	278,5;	0,0;	0,0
700,9221801757812;	295,0;	0,0;	0,0
700,9686279296875;	271,25;	0,0;	0,0
701,0151977539062;	278,5;	0,0;	0,0
701,0617065429688;	277,75;	0,0;	0,0
701,1080932617188;	280,25;	0,0;	0,0
701,154541015625;	289,5;	0,0;	0,0
701,2010498046875;	270,5;	0,0;	0,0
701,2473754882812;	293,75;	0,0;	0,0
701,2937622070312;	290,75;	0,0;	0,0
701,3402099609375;	269,5;	0,0;	0,0
701,3865356445312;	274,25;	0,0;	0,0
701,432861328125;	273,75;	0,0;	0,0
701,4791870117188;	316,75;	0,0;	0,0
701,5255126953125;	293,75;	0,0;	0,0
701,5718383789062;	290,75;	0,0;	0,0
701,6181030273438;	289,0;	0,0;	0,0
701,664306640625;	307,25;	0,0;	0,0
701,7106323242188;	299,75;	0,0;	0,0
701,7567749023438;	278,75;	0,0;	0,0
701,8030395507812;	266,75;	0,0;	0,0
701,8492431640625;	275,0;	0,0;	0,0
701,8953857421875;	280,5;	0,0;	0,0
701,9415283203125;	274,75;	0,0;	0,0
701,9877319335938;	277,25;	0,0;	0,0
702,0338134765625;	300,75;	0,0;	0,0
702,0799560546875;	288,0;	0,0;	0,0
702,1260375976562;	260,75;	0,0;	0,0
702,172119140625;	295,75;	0,0;	0,0
702,2181396484375;	308,5;	0,0;	0,0
702,2642211914062;	300,25;	0,0;	0,0
702,3101806640625;	299,5;	0,0;	0,0
702,356201171875;	294,75;	0,0;	0,0
702,4022216796875;	276,25;	0,0;	0,0
702,4481811523438;	297,75;	0,0;	0,0
702,494140625;	294,5;	0,0;	0,0
702,5400390625;	273,25;	0,0;	0,0
702,5859985351562;	276,75;	0,0;	0,0
702,6318969726562;	272,0;	0,0;	0,0
702,6777954101562;	293,25;	0,0;	0,0
702,7236938476562;	278,75;	0,0;	0,0
702,76953125;	268,0;	0,0;	0,0
702,8153686523438;	290,25;	0,0;	0,0
702,8611450195312;	304,0;	0,0;	0,0
702,906982421875;	301,5;	0,0;	0,0
702,9527587890625;	283,75;	0,0;	0,0
702,99853515625;	274,5;	0,0;	0,0
703,0443115234375;	282,5;	0,0;	0,0
703,0900268554688;	261,0;	0,0;	0,0
703,1357421875;	288,25;	0,0;	0,0
703,1814575195312;	277,75;	0,0;	0,0
703,2271118164062;	275,25;	0,0;	0,0
703,2728271484375;	261,25;	0,0;	0,0
703,3184204101562;	269,5;	0,0;	0,0
703,364013671875;	283,5;	0,0;	0,0
703,4097290039062;	282,75;	0,0;	0,0
703,4552612304688;	295,5;	0,0;	0,0
703,5008544921875;	274,5;	0,0;	0,0
703,5464477539062;	264,75;	0,0;	0,0
703,5919189453125;	292,75;	0,0;	0,0
703,6375122070312;	297,25;	0,0;	0,0
703,6830444335938;	290,75;	0,0;	0,0
703,728515625;	311,75;	0,0;	0,0
703,7739868164062;	279,75;	0,0;	0,0
703,8195190429688;	279,75;	0,0;	0,0
703,8649291992188;	296,0;	0,0;	0,0
703,910400390625;	284,25;	0,0;	0,0
703,9557495117188;	251,25;	0,0;	0,0
704,0011596679688;	284,25;	0,0;	0,0
704,0465698242188;	287,75;	0,0;	0,0
704,0918579101562;	293,0;	0,0;	0,0
704,1372680664062;	285,0;	0,0;	0,0
704,1825561523438;	290,5;	0,0;	0,0
704,2278442382812;	277,5;	0,0;	0,0
704,2731323242188;	290,75;	0,0;	0,0
704,3184204101562;	283,5;	0,0;	0,0
704,3637084960938;	266,0;	0,0;	0,0
704,408935546875;	270,25;	0,0;	0,0
704,4541625976562;	280,75;	0,0;	0,0
704,4993286132812;	276,75;	0,0;	0,0
704,5445556640625;	261,75;	0,0;	0,0
704,5897827148438;	281,5;	0,0;	0,0
704,6348876953125;	252,0;	0,0;	0,0
704,6800537109375;	284,75;	0,0;	0,0
704,7252197265625;	279,75;	0,0;	0,0
704,7702026367188;	247,25;	0,0;	0,0
704,8153076171875;	281,75;	0,0;	0,0
704,8603515625;	264,0;	0,0;	0,0
704,9054565429688;	284,25;	0,0;	0,0
704,9505615234375;	283,25;	0,0;	0,0
704,9955444335938;	245,5;	0,0;	0,0
705,04052734375;	273,25;	0,0;	0,0
705,0855102539062;	273,5;	0,0;	0,0
705,1304931640625;	252,5;	0,0;	0,0
705,1754150390625;	266,5;	0,0;	0,0
705,2203979492188;	252,25;	0,0;	0,0
705,2652587890625;	277,0;	0,0;	0,0
705,3102416992188;	263,75;	0,0;	0,0
705,3551025390625;	274,25;	0,0;	0,0
705,39990234375;	271,25;	0,0;	0,0
705,4447631835938;	258,5;	0,0;	0,0
705,4896850585938;	276,0;	0,0;	0,0
705,534423828125;	256,25;	0,0;	0,0
705,5792846679688;	271,5;	0,0;	0,0
705,6240234375;	291,0;	0,0;	0,0
705,6688232421875;	264,75;	0,0;	0,0
705,7135620117188;	274,5;	0,0;	0,0
705,75830078125;	250,5;	0,0;	0,0
705,8029174804688;	275,75;	0,0;	0,0
705,84765625;	281,0;	0,0;	0,0
705,892333984375;	293,75;	0,0;	0,0
705,93701171875;	302,25;	0,0;	0,0
705,981689453125;	263,25;	0,0;	0,0
706,0262451171875;	260,75;	0,0;	0,0
706,0708618164062;	270,0;	0,0;	0,0
706,1155395507812;	273,75;	0,0;	0,0
706,1600341796875;	280,0;	0,0;	0,0
706,2046508789062;	257,0;	0,0;	0,0
706,2492065429688;	266,25;	0,0;	0,0
706,2936401367188;	278,5;	0,0;	0,0
706,3381958007812;	267,75;	0,0;	0,0
706,3826293945312;	290,5;	0,0;	0,0
706,4271240234375;	285,5;	0,0;	0,0
706,4716186523438;	284,5;	0,0;	0,0
706,5160522460938;	267,75;	0,0;	0,0
706,5604248046875;	268,75;	0,0;	0,0
706,6048583984375;	266,75;	0,0;	0,0
706,6492309570312;	281,25;	0,0;	0,0
706,693603515625;	268,75;	0,0;	0,0
706,738037109375;	279,25;	0,0;	0,0
706,7823486328125;	251,75;	0,0;	0,0
706,82666015625;	311,25;	0,0;	0,0
706,8709716796875;	256,5;	0,0;	0,0
706,9152221679688;	255,25;	0,0;	0,0
706,9595336914062;	275,5;	0,0;	0,0
707,0037841796875;	260,75;	0,0;	0,0
707,0479736328125;	281,5;	0,0;	0,0
707,0922241210938;	268,25;	0,0;	0,0
707,136474609375;	280,0;	0,0;	0,0
707,1806030273438;	274,75;	0,0;	0,0
707,2247314453125;	259,25;	0,0;	0,0
707,2689819335938;	266,25;	0,0;	0,0
707,3130493164062;	282,0;	0,0;	0,0
707,357177734375;	268,0;	0,0;	0,0
707,4012451171875;	270,75;	0,0;	0,0
707,4453125;	266,5;	0,0;	0,0
707,4893798828125;	269,5;	0,0;	0,0
707,5333862304688;	278,5;	0,0;	0,0
707,5774536132812;	267,5;	0,0;	0,0
707,6215209960938;	266,25;	0,0;	0,0
707,6654663085938;	257,75;	0,0;	0,0
707,70947265625;	255,25;	0,0;	0,0
707,75341796875;	257,25;	0,0;	0,0
707,7973022460938;	255,25;	0,0;	0,0
707,84130859375;	278,0;	0,0;	0,0
707,8851928710938;	277,25;	0,0;	0,0
707,9290771484375;	281,0;	0,0;	0,0
707,9729614257812;	284,5;	0,0;	0,0
708,016845703125;	259,0;	0,0;	0,0
708,0606079101562;	254,0;	0,0;	0,0
708,1044921875;	276,0;	0,0;	0,0
708,1482543945312;	260,5;	0,0;	0,0
708,1920166015625;	265,75;	0,0;	0,0
708,2359008789062;	265,5;	0,0;	0,0
708,2796020507812;	271,0;	0,0;	0,0
708,3233032226562;	280,5;	0,0;	0,0
708,3670654296875;	285,25;	0,0;	0,0
708,4107055664062;	246,25;	0,0;	0,0
708,4544067382812;	280,25;	0,0;	0,0
708,4981079101562;	272,5;	0,0;	0,0
708,541748046875;	243,75;	0,0;	0,0
708,5853881835938;	258,0;	0,0;	0,0
708,6289672851562;	262,5;	0,0;	0,0
708,6725463867188;	263,0;	0,0;	0,0
708,7161865234375;	266,75;	0,0;	0,0
708,7598266601562;	275,25;	0,0;	0,0
708,8032836914062;	275,5;	0,0;	0,0
708,8468627929688;	279,75;	0,0;	0,0
708,8903198242188;	280,5;	0,0;	0,0
708,933837890625;	257,25;	0,0;	0,0
708,977294921875;	292,5;	0,0;	0,0
709,020751953125;	273,75;	0,0;	0,0
709,064208984375;	288,25;	0,0;	0,0
709,107666015625;	263,25;	0,0;	0,0
709,1510009765625;	260,0;	0,0;	0,0
709,1943969726562;	264,25;	0,0;	0,0
709,23779296875;	259,25;	0,0;	0,0
709,2811279296875;	277,5;	0,0;	0,0
709,324462890625;	251,0;	0,0;	0,0
709,3678588867188;	271,5;	0,0;	0,0
709,4111328125;	244,0;	0,0;	0,0
709,4544067382812;	277,0;	0,0;	0,0
709,4977416992188;	275,25;	0,0;	0,0
709,5409545898438;	271,5;	0,0;	0,0
709,5841674804688;	257,75;	0,0;	0,0
709,6273803710938;	245,0;	0,0;	0,0
709,6705932617188;	256,0;	0,0;	0,0
709,7138061523438;	257,0;	0,0;	0,0
709,7570190429688;	257,25;	0,0;	0,0
709,8001098632812;	242,75;	0,0;	0,0
709,84326171875;	251,0;	0,0;	0,0
709,8863525390625;	245,0;	0,0;	0,0
709,929443359375;	278,5;	0,0;	0,0
709,9725952148438;	276,5;	0,0;	0,0
710,015625;	258,75;	0,0;	0,0
710,0586547851562;	279,0;	0,0;	0,0
710,1016845703125;	285,0;	0,0;	0,0
710,1446533203125;	264,75;	0,0;	0,0
710,1876831054688;	269,75;	0,0;	0,0
710,230712890625;	276,25;	0,0;	0,0
710,2736206054688;	260,5;	0,0;	0,0
710,3165893554688;	244,0;	0,0;	0,0
710,3594970703125;	258,25;	0,0;	0,0
710,4024047851562;	255,75;	0,0;	0,0
710,4453125;	258,0;	0,0;	0,0
710,4882202148438;	264,25;	0,0;	0,0
710,5310668945312;	255,0;	0,0;	0,0
710,5738525390625;	262,5;	0,0;	0,0
710,61669921875;	263,25;	0,0;	0,0
710,6594848632812;	246,0;	0,0;	0,0
710,7023315429688;	282,5;	0,0;	0,0
710,7450561523438;	283,0;	0,0;	0,0
710,7877807617188;	264,75;	0,0;	0,0
710,83056640625;	241,5;	0,0;	0,0
710,873291015625;	253,5;	0,0;	0,0
710,9159545898438;	253,25;	0,0;	0,0
710,9586791992188;	266,0;	0,0;	0,0
711,0012817382812;	274,25;	0,0;	0,0
711,0439453125;	264,25;	0,0;	0,0
711,0865478515625;	270,75;	0,0;	0,0
711,1292114257812;	281,0;	0,0;	0,0
711,1718139648438;	246,5;	0,0;	0,0
711,2144165039062;	245,5;	0,0;	0,0
711,2568969726562;	279,0;	0,0;	0,0
711,2994995117188;	268,75;	0,0;	0,0
711,342041015625;	260,5;	0,0;	0,0
711,384521484375;	258,75;	0,0;	0,0
711,4270629882812;	280,75;	0,0;	0,0
711,469482421875;	265,0;	0,0;	0,0
711,511962890625;	253,25;	0,0;	0,0
711,5543823242188;	253,75;	0,0;	0,0
711,5968017578125;	261,75;	0,0;	0,0
711,6392211914062;	257,75;	0,0;	0,0
711,681640625;	273,5;	0,0;	0,0
711,7239990234375;	274,0;	0,0;	0,0
711,766357421875;	262,75;	0,0;	0,0
711,8087158203125;	263,25;	0,0;	0,0
711,8510131835938;	244,25;	0,0;	0,0
711,893310546875;	266,25;	0,0;	0,0
711,9356689453125;	267,0;	0,0;	0,0
711,9779052734375;	268,75;	0,0;	0,0
712,0201416015625;	256,0;	0,0;	0,0
712,0623168945312;	242,5;	0,0;	0,0
712,1045532226562;	264,0;	0,0;	0,0
712,1467895507812;	265,5;	0,0;	0,0
712,1889038085938;	273,75;	0,0;	0,0
712,2311401367188;	271,5;	0,0;	0,0
712,2733154296875;	276,75;	0,0;	0,0
712,3153686523438;	264,0;	0,0;	0,0
712,3575439453125;	249,75;	0,0;	0,0
712,3995971679688;	268,25;	0,0;	0,0
712,441650390625;	242,25;	0,0;	0,0
712,4837646484375;	266,75;	0,0;	0,0
712,5258178710938;	252,0;	0,0;	0,0
712,5678100585938;	250,25;	0,0;	0,0
712,6098022460938;	278,5;	0,0;	0,0
712,6517944335938;	263,0;	0,0;	0,0
712,6937255859375;	264,75;	0,0;	0,0
712,7357177734375;	266,0;	0,0;	0,0
712,7776489257812;	257,5;	0,0;	0,0
712,819580078125;	260,25;	0,0;	0,0
712,8615112304688;	270,5;	0,0;	0,0
712,9033813476562;	286,25;	0,0;	0,0
712,9452514648438;	273,5;	0,0;	0,0
712,9871215820312;	278,25;	0,0;	0,0
713,0289306640625;	299,0;	0,0;	0,0
713,0707397460938;	286,25;	0,0;	0,0
713,1126098632812;	296,5;	0,0;	0,0
713,154296875;	270,25;	0,0;	0,0
713,1961059570312;	254,5;	0,0;	0,0
713,2378540039062;	265,0;	0,0;	0,0
713,279541015625;	249,5;	0,0;	0,0
713,3212890625;	279,25;	0,0;	0,0
713,363037109375;	272,5;	0,0;	0,0
713,4046630859375;	279,75;	0,0;	0,0
713,4463500976562;	253,5;	0,0;	0,0
713,4879150390625;	260,75;	0,0;	0,0
713,5296020507812;	259,5;	0,0;	0,0
713,5712280273438;	277,75;	0,0;	0,0
713,6128540039062;	268,25;	0,0;	0,0
713,6543579101562;	254,25;	0,0;	0,0
713,6959228515625;	255,25;	0,0;	0,0
713,7374267578125;	263,25;	0,0;	0,0
713,7789916992188;	270,25;	0,0;	0,0
713,8204345703125;	246,0;	0,0;	0,0
713,8619384765625;	260,0;	0,0;	0,0
713,9034423828125;	269,0;	0,0;	0,0
713,9448852539062;	259,5;	0,0;	0,0
713,9862670898438;	264,0;	0,0;	0,0
714,0277099609375;	245,0;	0,0;	0,0
714,0691528320312;	256,5;	0,0;	0,0
714,1104736328125;	252,0;	0,0;	0,0
714,1519165039062;	274,25;	0,0;	0,0
714,1931762695312;	248,0;	0,0;	0,0
714,2345581054688;	274,0;	0,0;	0,0
714,27587890625;	263,25;	0,0;	0,0
714,3171997070312;	260,5;	0,0;	0,0
714,3583984375;	289,0;	0,0;	0,0
714,3997192382812;	267,5;	0,0;	0,0
714,44091796875;	258,5;	0,0;	0,0
714,4821166992188;	261,5;	0,0;	0,0
714,5233764648438;	276,25;	0,0;	0,0
714,5645141601562;	264,0;	0,0;	0,0
714,6056518554688;	281,25;	0,0;	0,0
714,6469116210938;	296,75;	0,0;	0,0
714,68798828125;	280,75;	0,0;	0,0
714,7291259765625;	367,5;	0,0;	0,0
714,7702026367188;	440,5;	0,0;	0,0
714,811279296875;	307,5;	0,0;	0,0
714,8523559570312;	259,25;	0,0;	0,0
714,8933715820312;	288,75;	0,0;	0,0
714,9344482421875;	253,75;	0,0;	0,0
714,9754638671875;	249,75;	0,0;	0,0
715,0164794921875;	264,75;	0,0;	0,0
715,0574340820312;	265,5;	0,0;	0,0
715,0984497070312;	250,25;	0,0;	0,0
715,1393432617188;	242,75;	0,0;	0,0
715,1802978515625;	255,75;	0,0;	0,0
715,22119140625;	266,25;	0,0;	0,0
715,2620239257812;	251,75;	0,0;	0,0
715,3029174804688;	275,0;	0,0;	0,0
715,3438110351562;	258,75;	0,0;	0,0
715,3845825195312;	282,25;	0,0;	0,0
715,4254760742188;	258,0;	0,0;	0,0
715,4662475585938;	270,25;	0,0;	0,0
715,5070190429688;	283,0;	0,0;	0,0
715,5477905273438;	292,25;	0,0;	0,0
715,5885620117188;	292,0;	0,0;	0,0
715,6293334960938;	336,0;	0,0;	0,0
715,6700439453125;	332,5;	0,0;	0,0
715,7107543945312;	310,5;	0,0;	0,0
715,7513427734375;	289,0;	0,0;	0,0
715,7920532226562;	291,5;	0,0;	0,0
715,8327026367188;	264,5;	0,0;	0,0
715,873291015625;	260,25;	0,0;	0,0
715,9139404296875;	259,75;	0,0;	0,0
715,9545288085938;	277,5;	0,0;	0,0
715,9951171875;	262,25;	0,0;	0,0
716,0357055664062;	254,75;	0,0;	0,0
716,0762329101562;	259,5;	0,0;	0,0
716,1167602539062;	253,75;	0,0;	0,0
716,1572875976562;	259,75;	0,0;	0,0
716,1976928710938;	260,0;	0,0;	0,0
716,2382202148438;	273,25;	0,0;	0,0
716,2786865234375;	277,25;	0,0;	0,0
716,319091796875;	283,75;	0,0;	0,0
716,3595581054688;	289,25;	0,0;	0,0
716,3999633789062;	301,5;	0,0;	0,0
716,4402465820312;	286,5;	0,0;	0,0
716,480712890625;	259,5;	0,0;	0,0
716,52099609375;	256,75;	0,0;	0,0
716,5613403320312;	250,0;	0,0;	0,0
716,6016845703125;	245,25;	0,0;	0,0
716,6419677734375;	246,75;	0,0;	0,0
716,6822509765625;	243,75;	0,0;	0,0
716,7224731445312;	292,75;	0,0;	0,0
716,7626953125;	259,5;	0,0;	0,0
716,802978515625;	250,5;	0,0;	0,0
716,8432006835938;	236,75;	0,0;	0,0
716,88330078125;	247,75;	0,0;	0,0
716,9235229492188;	243,75;	0,0;	0,0
716,9636840820312;	272,75;	0,0;	0,0
717,0038452148438;	245,25;	0,0;	0,0
717,0439453125;	262,75;	0,0;	0,0
717,0840454101562;	260,25;	0,0;	0,0
717,1241455078125;	252,25;	0,0;	0,0
717,1641845703125;	253,25;	0,0;	0,0
717,2042236328125;	244,0;	0,0;	0,0
717,2442626953125;	258,75;	0,0;	0,0
717,2843017578125;	259,0;	0,0;	0,0
717,32421875;	242,5;	0,0;	0,0
717,3642578125;	264,0;	0,0;	0,0
717,4042358398438;	240,5;	0,0;	0,0
717,4441528320312;	256,25;	0,0;	0,0
717,484130859375;	248,0;	0,0;	0,0
717,5240478515625;	266,75;	0,0;	0,0
717,5638427734375;	269,0;	0,0;	0,0
717,603759765625;	253,25;	0,0;	0,0
717,6436157226562;	261,5;	0,0;	0,0
717,6834716796875;	263,5;	0,0;	0,0
717,7232666015625;	268,75;	0,0;	0,0
717,7631225585938;	262,5;	0,0;	0,0
717,8028564453125;	241,5;	0,0;	0,0
717,8426513671875;	258,75;	0,0;	0,0
717,8823852539062;	242,25;	0,0;	0,0
717,922119140625;	239,75;	0,0;	0,0
717,9618530273438;	254,25;	0,0;	0,0
718,0015869140625;	238,75;	0,0;	0,0
718,0411987304688;	259,25;	0,0;	0,0
718,0808715820312;	249,5;	0,0;	0,0
718,1204833984375;	228,25;	0,0;	0,0
718,16015625;	227,5;	0,0;	0,0
718,1998291015625;	241,25;	0,0;	0,0
718,2393188476562;	261,0;	0,0;	0,0
718,2789306640625;	255,25;	0,0;	0,0
718,3185424804688;	246,0;	0,0;	0,0
718,3579711914062;	243,75;	0,0;	0,0
718,3975830078125;	256,5;	0,0;	0,0
718,4370727539062;	247,5;	0,0;	0,0
718,4765625;	288,5;	0,0;	0,0
718,5159912109375;	262,5;	0,0;	0,0
718,555419921875;	282,25;	0,0;	0,0
718,5948486328125;	317,25;	0,0;	0,0
718,6343383789062;	319,75;	0,0;	0,0
718,6737060546875;	405,75;	0,0;	0,0
718,7130737304688;	372,75;	0,0;	0,0
718,75244140625;	318,0;	0,0;	0,0
718,791748046875;	250,5;	0,0;	0,0
718,8311157226562;	243,25;	0,0;	0,0
718,8704223632812;	232,25;	0,0;	0,0
718,90966796875;	273,25;	0,0;	0,0
718,948974609375;	260,0;	0,0;	0,0
718,98828125;	234,25;	0,0;	0,0
719,0274047851562;	277,0;	0,0;	0,0
719,0667114257812;	239,0;	0,0;	0,0
719,1058959960938;	235,5;	0,0;	0,0
719,1450805664062;	238,0;	0,0;	0,0
719,1842651367188;	236,5;	0,0;	0,0
719,223388671875;	258,0;	0,0;	0,0
719,2625122070312;	233,0;	0,0;	0,0
719,3016357421875;	226,25;	0,0;	0,0
719,3407592773438;	235,5;	0,0;	0,0
719,3797607421875;	247,75;	0,0;	0,0
719,4188842773438;	242,0;	0,0;	0,0
719,4578857421875;	245,0;	0,0;	0,0
719,4969482421875;	248,5;	0,0;	0,0
719,5359497070312;	237,25;	0,0;	0,0
719,5748901367188;	246,25;	0,0;	0,0
719,6139526367188;	250,0;	0,0;	0,0
719,65283203125;	257,5;	0,0;	0,0
719,6917724609375;	227,25;	0,0;	0,0
719,7307739257812;	265,5;	0,0;	0,0
719,7696533203125;	238,0;	0,0;	0,0
719,8085327148438;	243,5;	0,0;	0,0
719,8473510742188;	235,75;	0,0;	0,0
719,8862915039062;	239,5;	0,0;	0,0
719,925048828125;	239,75;	0,0;	0,0
719,9638671875;	241,0;	0,0;	0,0
720,002685546875;	251,75;	0,0;	0,0
720,0413818359375;	251,25;	0,0;	0,0
720,0802001953125;	261,25;	0,0;	0,0
720,1189575195312;	262,75;	0,0;	0,0
720,1576538085938;	262,0;	0,0;	0,0
720,1963500976562;	295,25;	0,0;	0,0
720,2350463867188;	257,0;	0,0;	0,0
720,2737426757812;	230,5;	0,0;	0,0
720,3124389648438;	241,25;	0,0;	0,0
720,3509521484375;	240,5;	0,0;	0,0
720,3896484375;	260,5;	0,0;	0,0
720,4282836914062;	242,5;	0,0;	0,0
720,466796875;	267,25;	0,0;	0,0
720,5054321289062;	250,0;	0,0;	0,0
720,5439453125;	251,75;	0,0;	0,0
720,5824584960938;	258,25;	0,0;	0,0
720,6210327148438;	308,25;	0,0;	0,0
720,6594848632812;	300,0;	0,0;	0,0
720,6979370117188;	324,5;	0,0;	0,0
720,7363891601562;	267,25;	0,0;	0,0
720,7747802734375;	244,5;	0,0;	0,0
720,813232421875;	228,0;	0,0;	0,0
720,8516845703125;	237,5;	0,0;	0,0
720,8900146484375;	242,25;	0,0;	0,0
720,928466796875;	236,5;	0,0;	0,0
720,9668579101562;	223,75;	0,0;	0,0
721,0050659179688;	231,5;	0,0;	0,0
721,04345703125;	238,75;	0,0;	0,0
721,0817260742188;	246,0;	0,0;	0,0
721,1199951171875;	251,25;	0,0;	0,0
721,1582641601562;	231,75;	0,0;	0,0
721,1964721679688;	247,25;	0,0;	0,0
721,2347412109375;	230,75;	0,0;	0,0
721,2730102539062;	225,0;	0,0;	0,0
721,3112182617188;	235,0;	0,0;	0,0
721,3493041992188;	237,25;	0,0;	0,0
721,3875122070312;	237,5;	0,0;	0,0
721,4255981445312;	240,75;	0,0;	0,0
721,4637451171875;	257,5;	0,0;	0,0
721,5018310546875;	236,0;	0,0;	0,0
721,5399780273438;	242,0;	0,0;	0,0
721,5780029296875;	254,75;	0,0;	0,0
721,6160888671875;	222,25;	0,0;	0,0
721,654052734375;	227,25;	0,0;	0,0
721,6920776367188;	236,0;	0,0;	0,0
721,7301635742188;	221,0;	0,0;	0,0
721,76806640625;	228,25;	0,0;	0,0
721,8060302734375;	246,5;	0,0;	0,0
721,8439331054688;	212,0;	0,0;	0,0
721,8818359375;	257,5;	0,0;	0,0
721,9197998046875;	233,0;	0,0;	0,0
721,9577026367188;	254,0;	0,0;	0,0
721,9955444335938;	235,75;	0,0;	0,0
722,0333862304688;	245,5;	0,0;	0,0
722,0712280273438;	239,25;	0,0;	0,0
722,1090698242188;	232,0;	0,0;	0,0
722,1468505859375;	235,5;	0,0;	0,0
722,1846923828125;	213,25;	0,0;	0,0
722,222412109375;	234,25;	0,0;	0,0
722,2601928710938;	219,0;	0,0;	0,0
722,2978515625;	242,0;	0,0;	0,0
722,3355712890625;	233,25;	0,0;	0,0
722,3733520507812;	256,0;	0,0;	0,0
722,4109497070312;	217,5;	0,0;	0,0
722,4486694335938;	229,5;	0,0;	0,0
722,4862670898438;	229,5;	0,0;	0,0
722,5238647460938;	231,0;	0,0;	0,0
722,5615234375;	232,5;	0,0;	0,0
722,59912109375;	254,75;	0,0;	0,0
722,6365966796875;	250,25;	0,0;	0,0
722,6741943359375;	237,75;	0,0;	0,0
722,711669921875;	224,0;	0,0;	0,0
722,7492065429688;	216,25;	0,0;	0,0
722,7867431640625;	242,75;	0,0;	0,0
722,82421875;	237,5;	0,0;	0,0
722,8616943359375;	230,25;	0,0;	0,0
722,899169921875;	229,5;	0,0;	0,0
722,9364624023438;	243,0;	0,0;	0,0
722,9739379882812;	223,75;	0,0;	0,0
723,0113525390625;	236,75;	0,0;	0,0
723,0487060546875;	241,5;	0,0;	0,0
723,0860595703125;	220,25;	0,0;	0,0
723,1234130859375;	235,5;	0,0;	0,0
723,16064453125;	238,75;	0,0;	0,0
723,1980590820312;	224,75;	0,0;	0,0
723,2353515625;	240,25;	0,0;	0,0
723,2725219726562;	235,0;	0,0;	0,0
723,309814453125;	218,25;	0,0;	0,0
723,3469848632812;	231,25;	0,0;	0,0
723,3842163085938;	220,75;	0,0;	0,0
723,4214477539062;	217,5;	0,0;	0,0
723,4586181640625;	213,5;	0,0;	0,0
723,4957885742188;	235,5;	0,0;	0,0
723,532958984375;	216,0;	0,0;	0,0
723,5700073242188;	217,75;	0,0;	0,0
723,6071166992188;	219,75;	0,0;	0,0
723,644287109375;	239,25;	0,0;	0,0
723,6813354492188;	227,75;	0,0;	0,0
723,7183837890625;	238,5;	0,0;	0,0
723,75537109375;	219,25;	0,0;	0,0
723,7923583984375;	226,25;	0,0;	0,0
723,8294067382812;	227,5;	0,0;	0,0
723,8663940429688;	230,25;	0,0;	0,0
723,9033203125;	240,25;	0,0;	0,0
723,9402465820312;	236,5;	0,0;	0,0
723,9771728515625;	228,5;	0,0;	0,0
724,0140991210938;	217,25;	0,0;	0,0
724,051025390625;	219,0;	0,0;	0,0
724,087890625;	221,0;	0,0;	0,0
724,1246337890625;	222,25;	0,0;	0,0
724,1615600585938;	227,75;	0,0;	0,0
724,1983032226562;	232,0;	0,0;	0,0
724,235107421875;	220,0;	0,0;	0,0
724,27197265625;	219,0;	0,0;	0,0
724,3087768554688;	225,5;	0,0;	0,0
724,345458984375;	236,25;	0,0;	0,0
724,3821411132812;	221,5;	0,0;	0,0
724,4188842773438;	236,5;	0,0;	0,0
724,45556640625;	223,5;	0,0;	0,0
724,4922485351562;	221,75;	0,0;	0,0
724,5288696289062;	223,5;	0,0;	0,0
724,5655517578125;	237,75;	0,0;	0,0
724,6021118164062;	202,25;	0,0;	0,0
724,6387329101562;	218,75;	0,0;	0,0
724,6753540039062;	213,75;	0,0;	0,0
724,7119140625;	218,75;	0,0;	0,0
724,7484741210938;	221,75;	0,0;	0,0
724,7849731445312;	232,0;	0,0;	0,0
724,8214721679688;	220,75;	0,0;	0,0
724,8579711914062;	246,25;	0,0;	0,0
724,8944702148438;	237,25;	0,0;	0,0
724,930908203125;	198,75;	0,0;	0,0
724,9673461914062;	201,0;	0,0;	0,0
725,0037841796875;	233,75;	0,0;	0,0
725,0401000976562;	221,5;	0,0;	0,0
725,0765991210938;	236,0;	0,0;	0,0
725,1129760742188;	228,25;	0,0;	0,0
725,1492919921875;	226,5;	0,0;	0,0
725,1856079101562;	219,25;	0,0;	0,0
725,221923828125;	222,75;	0,0;	0,0
725,2582397460938;	229,0;	0,0;	0,0
725,2945556640625;	263,5;	0,0;	0,0
725,3307495117188;	236,75;	0,0;	0,0
725,3670043945312;	235,5;	0,0;	0,0
725,4032592773438;	233,25;	0,0;	0,0
725,4393920898438;	227,5;	0,0;	0,0
725,4756469726562;	219,75;	0,0;	0,0
725,5117797851562;	215,25;	0,0;	0,0
725,5479736328125;	221,75;	0,0;	0,0
725,5840454101562;	234,0;	0,0;	0,0
725,6201782226562;	251,75;	0,0;	0,0
725,65625;	235,25;	0,0;	0,0
725,6923828125;	214,5;	0,0;	0,0
725,7284545898438;	236,75;	0,0;	0,0
725,7644653320312;	227,5;	0,0;	0,0
725,800537109375;	228,25;	0,0;	0,0
725,8365478515625;	218,5;	0,0;	0,0
725,8724975585938;	217,75;	0,0;	0,0
725,908447265625;	227,25;	0,0;	0,0
725,9444580078125;	228,75;	0,0;	0,0
725,9803466796875;	244,5;	0,0;	0,0
726,0162353515625;	223,25;	0,0;	0,0
726,0521240234375;	229,25;	0,0;	0,0
726,0880126953125;	239,0;	0,0;	0,0
726,1239624023438;	237,75;	0,0;	0,0
726,1597900390625;	207,25;	0,0;	0,0
726,195556640625;	226,0;	0,0;	0,0
726,2314453125;	221,5;	0,0;	0,0
726,2671508789062;	217,5;	0,0;	0,0
726,302978515625;	239,75;	0,0;	0,0
726,3387451171875;	236,5;	0,0;	0,0
726,3744506835938;	231,0;	0,0;	0,0
726,41015625;	224,25;	0,0;	0,0
726,4459228515625;	240,25;	0,0;	0,0
726,4815063476562;	224,25;	0,0;	0,0
726,5172119140625;	237,75;	0,0;	0,0
726,5529174804688;	214,0;	0,0;	0,0
726,5884399414062;	238,0;	0,0;	0,0
726,6240844726562;	222,5;	0,0;	0,0
726,6596069335938;	252,5;	0,0;	0,0
726,6952514648438;	224,75;	0,0;	0,0
726,7308349609375;	209,5;	0,0;	0,0
726,766357421875;	231,5;	0,0;	0,0
726,8018798828125;	215,75;	0,0;	0,0
726,83740234375;	211,25;	0,0;	0,0
726,8728637695312;	217,25;	0,0;	0,0
726,9083251953125;	221,25;	0,0;	0,0
726,9437866210938;	230,75;	0,0;	0,0
726,9791870117188;	227,75;	0,0;	0,0
727,0146484375;	243,5;	0,0;	0,0
727,0499877929688;	216,0;	0,0;	0,0
727,0853881835938;	226,0;	0,0;	0,0
727,1207885742188;	241,75;	0,0;	0,0
727,1560668945312;	226,25;	0,0;	0,0
727,19140625;	229,25;	0,0;	0,0
727,2266845703125;	224,0;	0,0;	0,0
727,261962890625;	224,5;	0,0;	0,0
727,2972412109375;	243,25;	0,0;	0,0
727,33251953125;	0,0;	0,0;	0,0
