0.0	1.5
Integration time [ms]:	1.05
Averaging Nr. [scans]:1
Smoothing Nr. [pixels]:0
Data measured with spectrometer [name]:b'1703277U8'
Wave	;Sample	;Dark	;Reference	;Scope	
[nm]	;[counts]	;[counts]	;[counts]	
 
493,2108154296875;	535,5;	0,0;	0,0
493,2895202636719;	463,0;	0,0;	0,0
493,36822509765625;	336,75;	0,0;	0,0
493,4468994140625;	282,5;	0,0;	0,0
493,52557373046875;	338,5;	0,0;	0,0
493,6042175292969;	398,75;	0,0;	0,0
493,6828918457031;	486,5;	0,0;	0,0
493,7615051269531;	530,25;	0,0;	0,0
493,8401184082031;	401,25;	0,0;	0,0
493,9187316894531;	322,25;	0,0;	0,0
493,9973449707031;	324,75;	0,0;	0,0
494,075927734375;	331,25;	0,0;	0,0
494,1545104980469;	341,0;	0,0;	0,0
494,2330627441406;	299,0;	0,0;	0,0
494,3116149902344;	303,0;	0,0;	0,0
494,3901672363281;	353,75;	0,0;	0,0
494,4686584472656;	410,5;	0,0;	0,0
494,5472106933594;	389,0;	0,0;	0,0
494,6257019042969;	351,5;	0,0;	0,0
494,7041931152344;	328,0;	0,0;	0,0
494,78265380859375;	345,75;	0,0;	0,0
494,86114501953125;	359,75;	0,0;	0,0
494,9395751953125;	338,5;	0,0;	0,0
495,0180358886719;	349,75;	0,0;	0,0
495,096435546875;	363,0;	0,0;	0,0
495,1748962402344;	352,75;	0,0;	0,0
495,2532653808594;	384,25;	0,0;	0,0
495,3316650390625;	434,75;	0,0;	0,0
495,4100341796875;	631,75;	0,0;	0,0
495,4884338378906;	1679,0;	0,0;	0,0
495,5667724609375;	4799,25;	0,0;	0,0
495,6451110839844;	5153,0;	0,0;	0,0
495,72344970703125;	1128,25;	0,0;	0,0
495,8017883300781;	480,75;	0,0;	0,0
495,8800964355469;	421,5;	0,0;	0,0
495,9583435058594;	384,0;	0,0;	0,0
496,0366516113281;	348,5;	0,0;	0,0
496,11492919921875;	357,0;	0,0;	0,0
496,19317626953125;	335,25;	0,0;	0,0
496,27142333984375;	361,75;	0,0;	0,0
496,34967041015625;	385,5;	0,0;	0,0
496,4278869628906;	542,25;	0,0;	0,0
496,506103515625;	546,0;	0,0;	0,0
496,58428955078125;	436,5;	0,0;	0,0
496,6625061035156;	442,25;	0,0;	0,0
496,74066162109375;	411,75;	0,0;	0,0
496,8188171386719;	421,0;	0,0;	0,0
496,89697265625;	461,5;	0,0;	0,0
496,9751281738281;	387,25;	0,0;	0,0
497,0532531738281;	385,0;	0,0;	0,0
497,1313171386719;	461,75;	0,0;	0,0
497,2094421386719;	431,5;	0,0;	0,0
497,28753662109375;	375,25;	0,0;	0,0
497,3656005859375;	360,0;	0,0;	0,0
497,44366455078125;	374,5;	0,0;	0,0
497,521728515625;	354,25;	0,0;	0,0
497,59979248046875;	404,25;	0,0;	0,0
497,67779541015625;	477,5;	0,0;	0,0
497,7558288574219;	460,5;	0,0;	0,0
497,83380126953125;	455,25;	0,0;	0,0
497,91180419921875;	442,5;	0,0;	0,0
497,9897766113281;	595,5;	0,0;	0,0
498,0677490234375;	840,25;	0,0;	0,0
498,1457214355469;	1086,75;	0,0;	0,0
498,2236633300781;	989,0;	0,0;	0,0
498,30157470703125;	772,75;	0,0;	0,0
498,3794860839844;	811,75;	0,0;	0,0
498,4573974609375;	582,0;	0,0;	0,0
498,5353088378906;	456,25;	0,0;	0,0
498,6131896972656;	400,0;	0,0;	0,0
498,6910705566406;	420,25;	0,0;	0,0
498,7688903808594;	498,75;	0,0;	0,0
498,84674072265625;	425,5;	0,0;	0,0
498,924560546875;	429,0;	0,0;	0,0
499,0024108886719;	478,5;	0,0;	0,0
499,0802307128906;	417,0;	0,0;	0,0
499,1579895019531;	418,75;	0,0;	0,0
499,23577880859375;	515,75;	0,0;	0,0
499,3135681152344;	430,5;	0,0;	0,0
499,3913269042969;	377,75;	0,0;	0,0
499,4690856933594;	355,0;	0,0;	0,0
499,5467834472656;	349,75;	0,0;	0,0
499,6245422363281;	349,75;	0,0;	0,0
499,7022399902344;	373,75;	0,0;	0,0
499,7799377441406;	400,75;	0,0;	0,0
499,8576354980469;	409,5;	0,0;	0,0
499,935302734375;	542,25;	0,0;	0,0
500,0129699707031;	905,25;	0,0;	0,0
500,090576171875;	850,75;	0,0;	0,0
500,1682434082031;	504,75;	0,0;	0,0
500,2458801269531;	495,25;	0,0;	0,0
500,323486328125;	614,0;	0,0;	0,0
500,40106201171875;	1215,5;	0,0;	0,0
500,47869873046875;	1543,25;	0,0;	0,0
500,5562744140625;	736,25;	0,0;	0,0
500,6337890625;	545,5;	0,0;	0,0
500,71136474609375;	409,5;	0,0;	0,0
500,7889099121094;	399,25;	0,0;	0,0
500,8664245605469;	372,0;	0,0;	0,0
500,9439392089844;	459,5;	0,0;	0,0
501,02142333984375;	748,25;	0,0;	0,0
501,09893798828125;	717,75;	0,0;	0,0
501,1764221191406;	435,0;	0,0;	0,0
501,25384521484375;	521,5;	0,0;	0,0
501,33135986328125;	700,75;	0,0;	0,0
501,40875244140625;	598,0;	0,0;	0,0
501,4862060546875;	410,75;	0,0;	0,0
501,5636291503906;	475,5;	0,0;	0,0
501,6410217285156;	701,25;	0,0;	0,0
501,7184143066406;	750,25;	0,0;	0,0
501,7957763671875;	441,5;	0,0;	0,0
501,8731384277344;	363,25;	0,0;	0,0
501,95050048828125;	411,75;	0,0;	0,0
502,0278625488281;	538,0;	0,0;	0,0
502,10516357421875;	561,5;	0,0;	0,0
502,1824951171875;	420,75;	0,0;	0,0
502,2597961425781;	396,5;	0,0;	0,0
502,33709716796875;	363,75;	0,0;	0,0
502,41436767578125;	399,0;	0,0;	0,0
502,4916687011719;	449,75;	0,0;	0,0
502,56890869140625;	572,25;	0,0;	0,0
502,6461486816406;	504,75;	0,0;	0,0
502,7233581542969;	433,75;	0,0;	0,0
502,8006286621094;	378,0;	0,0;	0,0
502,8778076171875;	359,25;	0,0;	0,0
502,9549865722656;	352,0;	0,0;	0,0
503,03216552734375;	356,75;	0,0;	0,0
503,1093444824219;	346,75;	0,0;	0,0
503,1865234375;	355,5;	0,0;	0,0
503,2636413574219;	344,5;	0,0;	0,0
503,34075927734375;	347,5;	0,0;	0,0
503,41790771484375;	352,25;	0,0;	0,0
503,4949951171875;	384,75;	0,0;	0,0
503,57208251953125;	362,75;	0,0;	0,0
503,6492004394531;	366,25;	0,0;	0,0
503,72625732421875;	421,25;	0,0;	0,0
503,8033142089844;	473,0;	0,0;	0,0
503,88037109375;	552,75;	0,0;	0,0
503,9573974609375;	790,25;	0,0;	0,0
504,034423828125;	723,5;	0,0;	0,0
504,1114196777344;	470,0;	0,0;	0,0
504,18841552734375;	355,5;	0,0;	0,0
504,2654113769531;	368,25;	0,0;	0,0
504,3423767089844;	346,0;	0,0;	0,0
504,4193115234375;	304,75;	0,0;	0,0
504,49627685546875;	333,5;	0,0;	0,0
504,5732421875;	387,25;	0,0;	0,0
504,650146484375;	427,0;	0,0;	0,0
504,7270202636719;	529,0;	0,0;	0,0
504,8039245605469;	786,25;	0,0;	0,0
504,880859375;	710,25;	0,0;	0,0
504,95770263671875;	540,5;	0,0;	0,0
505,0345458984375;	594,5;	0,0;	0,0
505,1114196777344;	363,0;	0,0;	0,0
505,1882629394531;	378,5;	0,0;	0,0
505,2650451660156;	353,5;	0,0;	0,0
505,34185791015625;	355,75;	0,0;	0,0
505,4186706542969;	342,25;	0,0;	0,0
505,4954528808594;	317,0;	0,0;	0,0
505,57220458984375;	354,25;	0,0;	0,0
505,6489562988281;	337,75;	0,0;	0,0
505,72576904296875;	345,25;	0,0;	0,0
505,802490234375;	340,0;	0,0;	0,0
505,87921142578125;	339,0;	0,0;	0,0
505,9559020996094;	355,0;	0,0;	0,0
506,0326232910156;	348,75;	0,0;	0,0
506,1092834472656;	358,5;	0,0;	0,0
506,1859436035156;	421,0;	0,0;	0,0
506,2626037597656;	460,5;	0,0;	0,0
506,3392639160156;	578,0;	0,0;	0,0
506,4159240722656;	505,25;	0,0;	0,0
506,4925231933594;	411,75;	0,0;	0,0
506,56915283203125;	417,5;	0,0;	0,0
506,645751953125;	483,25;	0,0;	0,0
506,72235107421875;	639,0;	0,0;	0,0
506,7989196777344;	515,5;	0,0;	0,0
506,8754577636719;	390,75;	0,0;	0,0
506,9520263671875;	388,75;	0,0;	0,0
507,028564453125;	440,0;	0,0;	0,0
507,1050720214844;	462,0;	0,0;	0,0
507,1816101074219;	456,25;	0,0;	0,0
507,2580871582031;	538,25;	0,0;	0,0
507,3345642089844;	615,25;	0,0;	0,0
507,4110412597656;	465,5;	0,0;	0,0
507,487548828125;	420,5;	0,0;	0,0
507,56396484375;	398,0;	0,0;	0,0
507,640380859375;	457,5;	0,0;	0,0
507,71685791015625;	590,0;	0,0;	0,0
507,7932434082031;	673,25;	0,0;	0,0
507,86962890625;	451,75;	0,0;	0,0
507,9460144042969;	376,5;	0,0;	0,0
508,02239990234375;	374,25;	0,0;	0,0
508,0987548828125;	409,5;	0,0;	0,0
508,17510986328125;	515,5;	0,0;	0,0
508,2514343261719;	409,25;	0,0;	0,0
508,3277893066406;	367,75;	0,0;	0,0
508,4040832519531;	345,0;	0,0;	0,0
508,4803771972656;	341,75;	0,0;	0,0
508,556640625;	331,25;	0,0;	0,0
508,6329650878906;	347,0;	0,0;	0,0
508,7091979980469;	339,25;	0,0;	0,0
508,78546142578125;	363,0;	0,0;	0,0
508,8616943359375;	409,25;	0,0;	0,0
508,93792724609375;	447,5;	0,0;	0,0
509,0141296386719;	367,5;	0,0;	0,0
509,09033203125;	325,0;	0,0;	0,0
509,1665344238281;	341,0;	0,0;	0,0
509,24267578125;	348,5;	0,0;	0,0
509,31884765625;	341,75;	0,0;	0,0
509,3949890136719;	370,25;	0,0;	0,0
509,4711608886719;	412,5;	0,0;	0,0
509,5472717285156;	480,5;	0,0;	0,0
509,62335205078125;	467,25;	0,0;	0,0
509,699462890625;	593,75;	0,0;	0,0
509,77557373046875;	514,5;	0,0;	0,0
509,85162353515625;	371,75;	0,0;	0,0
509,92767333984375;	356,75;	0,0;	0,0
510,00372314453125;	365,5;	0,0;	0,0
510,0798034667969;	340,25;	0,0;	0,0
510,15582275390625;	343,25;	0,0;	0,0
510,2318115234375;	375,25;	0,0;	0,0
510,3078308105469;	409,75;	0,0;	0,0
510,3837890625;	505,25;	0,0;	0,0
510,45977783203125;	487,5;	0,0;	0,0
510,5357360839844;	513,5;	0,0;	0,0
510,6116943359375;	627,0;	0,0;	0,0
510,6876220703125;	454,25;	0,0;	0,0
510,7635498046875;	423,5;	0,0;	0,0
510,8394470214844;	572,25;	0,0;	0,0
510,9153747558594;	588,75;	0,0;	0,0
510,9912414550781;	393,0;	0,0;	0,0
511,0671081542969;	321,5;	0,0;	0,0
511,1429443359375;	357,75;	0,0;	0,0
511,2188415527344;	351,5;	0,0;	0,0
511,2946472167969;	358,75;	0,0;	0,0
511,3704833984375;	358,5;	0,0;	0,0
511,4462890625;	357,75;	0,0;	0,0
511,5220947265625;	343,25;	0,0;	0,0
511,59783935546875;	319,75;	0,0;	0,0
511,6736145019531;	353,75;	0,0;	0,0
511,7494201660156;	338,25;	0,0;	0,0
511,82513427734375;	344,25;	0,0;	0,0
511,90087890625;	357,0;	0,0;	0,0
511,97662353515625;	374,25;	0,0;	0,0
512,0523071289062;	409,75;	0,0;	0,0
512,1280517578125;	382,0;	0,0;	0,0
512,2036743164062;	503,5;	0,0;	0,0
512,2793579101562;	513,5;	0,0;	0,0
512,3550415039062;	590,0;	0,0;	0,0
512,4306640625;	549,75;	0,0;	0,0
512,5062866210938;	463,5;	0,0;	0,0
512,5819702148438;	438,25;	0,0;	0,0
512,657470703125;	377,25;	0,0;	0,0
512,7330932617188;	345,0;	0,0;	0,0
512,8087158203125;	360,75;	0,0;	0,0
512,88427734375;	363,25;	0,0;	0,0
512,9598999023438;	429,5;	0,0;	0,0
513,035400390625;	469,5;	0,0;	0,0
513,1109008789062;	668,5;	0,0;	0,0
513,1864624023438;	830,25;	0,0;	0,0
513,2619018554688;	730,5;	0,0;	0,0
513,33740234375;	465,75;	0,0;	0,0
513,4129638671875;	433,75;	0,0;	0,0
513,4884033203125;	472,25;	0,0;	0,0
513,5638427734375;	574,0;	0,0;	0,0
513,6392822265625;	675,75;	0,0;	0,0
513,7147216796875;	1037,25;	0,0;	0,0
513,7901000976562;	1782,75;	0,0;	0,0
513,8655395507812;	1041,0;	0,0;	0,0
513,94091796875;	418,5;	0,0;	0,0
514,0162963867188;	490,75;	0,0;	0,0
514,0916748046875;	612,5;	0,0;	0,0
514,1669921875;	505,75;	0,0;	0,0
514,2423706054688;	389,5;	0,0;	0,0
514,3176879882812;	353,25;	0,0;	0,0
514,3930053710938;	354,25;	0,0;	0,0
514,4683837890625;	381,25;	0,0;	0,0
514,5435791015625;	390,75;	0,0;	0,0
514,618896484375;	456,25;	0,0;	0,0
514,694091796875;	503,5;	0,0;	0,0
514,7694091796875;	451,0;	0,0;	0,0
514,8446655273438;	417,0;	0,0;	0,0
514,9198608398438;	486,75;	0,0;	0,0
514,9950561523438;	484,5;	0,0;	0,0
515,0703125;	462,25;	0,0;	0,0
515,1454467773438;	469,0;	0,0;	0,0
515,220703125;	441,0;	0,0;	0,0
515,2957763671875;	376,75;	0,0;	0,0
515,3709716796875;	356,75;	0,0;	0,0
515,4461059570312;	392,0;	0,0;	0,0
515,521240234375;	377,0;	0,0;	0,0
515,5963745117188;	357,0;	0,0;	0,0
515,6714477539062;	404,75;	0,0;	0,0
515,7465209960938;	376,25;	0,0;	0,0
515,8215942382812;	439,5;	0,0;	0,0
515,896728515625;	420,5;	0,0;	0,0
515,9717407226562;	502,0;	0,0;	0,0
516,0467529296875;	606,25;	0,0;	0,0
516,121826171875;	659,0;	0,0;	0,0
516,1968383789062;	533,25;	0,0;	0,0
516,2717895507812;	470,75;	0,0;	0,0
516,3468017578125;	550,0;	0,0;	0,0
516,4217529296875;	685,0;	0,0;	0,0
516,4967651367188;	1298,5;	0,0;	0,0
516,5716552734375;	2801,5;	0,0;	0,0
516,6466674804688;	2500,25;	0,0;	0,0
516,7215576171875;	1074,5;	0,0;	0,0
516,7964477539062;	891,0;	0,0;	0,0
516,871337890625;	544,25;	0,0;	0,0
516,9461669921875;	843,25;	0,0;	0,0
517,0211181640625;	1167,0;	0,0;	0,0
517,0960083007812;	725,75;	0,0;	0,0
517,1707763671875;	463,0;	0,0;	0,0
517,24560546875;	349,0;	0,0;	0,0
517,3204345703125;	331,0;	0,0;	0,0
517,3952026367188;	357,5;	0,0;	0,0
517,4700927734375;	354,25;	0,0;	0,0
517,5448608398438;	343,5;	0,0;	0,0
517,61962890625;	342,5;	0,0;	0,0
517,6943969726562;	342,0;	0,0;	0,0
517,7691040039062;	379,25;	0,0;	0,0
517,8438110351562;	356,5;	0,0;	0,0
517,9185791015625;	362,25;	0,0;	0,0
517,9932250976562;	379,75;	0,0;	0,0
518,0679321289062;	434,5;	0,0;	0,0
518,1426391601562;	477,5;	0,0;	0,0
518,21728515625;	639,25;	0,0;	0,0
518,2919311523438;	494,5;	0,0;	0,0
518,3665771484375;	373,75;	0,0;	0,0
518,4412231445312;	384,25;	0,0;	0,0
518,515869140625;	374,75;	0,0;	0,0
518,5903930664062;	410,0;	0,0;	0,0
518,6650390625;	396,75;	0,0;	0,0
518,7396240234375;	409,25;	0,0;	0,0
518,8141479492188;	429,5;	0,0;	0,0
518,8887329101562;	566,75;	0,0;	0,0
518,9631958007812;	1111,0;	0,0;	0,0
519,0377807617188;	1521,25;	0,0;	0,0
519,1123046875;	1404,5;	0,0;	0,0
519,186767578125;	700,25;	0,0;	0,0
519,2612915039062;	561,75;	0,0;	0,0
519,3358154296875;	870,5;	0,0;	0,0
519,41015625;	748,0;	0,0;	0,0
519,4846801757812;	468,75;	0,0;	0,0
519,5591430664062;	429,5;	0,0;	0,0
519,633544921875;	404,25;	0,0;	0,0
519,7080078125;	444,75;	0,0;	0,0
519,7822875976562;	391,0;	0,0;	0,0
519,856689453125;	361,25;	0,0;	0,0
519,93115234375;	354,75;	0,0;	0,0
520,0054321289062;	452,5;	0,0;	0,0
520,0797729492188;	613,75;	0,0;	0,0
520,1541748046875;	478,5;	0,0;	0,0
520,2283935546875;	423,0;	0,0;	0,0
520,302734375;	525,25;	0,0;	0,0
520,3770751953125;	503,25;	0,0;	0,0
520,4512939453125;	539,25;	0,0;	0,0
520,525634765625;	487,75;	0,0;	0,0
520,5997924804688;	457,5;	0,0;	0,0
520,674072265625;	785,0;	0,0;	0,0
520,7483520507812;	711,5;	0,0;	0,0
520,822509765625;	404,5;	0,0;	0,0
520,8967895507812;	357,25;	0,0;	0,0
520,970947265625;	364,75;	0,0;	0,0
521,0451049804688;	347,5;	0,0;	0,0
521,1192626953125;	360,75;	0,0;	0,0
521,1934204101562;	388,75;	0,0;	0,0
521,267578125;	450,5;	0,0;	0,0
521,3417358398438;	612,75;	0,0;	0,0
521,415771484375;	706,25;	0,0;	0,0
521,4898681640625;	732,75;	0,0;	0,0
521,5640258789062;	623,75;	0,0;	0,0
521,6380615234375;	579,25;	0,0;	0,0
521,712158203125;	470,25;	0,0;	0,0
521,7862548828125;	372,5;	0,0;	0,0
521,8602294921875;	382,25;	0,0;	0,0
521,9342651367188;	365,25;	0,0;	0,0
522,0082397460938;	360,0;	0,0;	0,0
522,0822143554688;	367,5;	0,0;	0,0
522,1563110351562;	362,25;	0,0;	0,0
522,230224609375;	338,0;	0,0;	0,0
522,30419921875;	408,5;	0,0;	0,0
522,3781127929688;	564,5;	0,0;	0,0
522,4520874023438;	1036,75;	0,0;	0,0
522,5260009765625;	2391,5;	0,0;	0,0
522,599853515625;	2536,5;	0,0;	0,0
522,6737670898438;	845,75;	0,0;	0,0
522,7476806640625;	483,25;	0,0;	0,0
522,821533203125;	557,75;	0,0;	0,0
522,8953857421875;	534,75;	0,0;	0,0
522,96923828125;	579,75;	0,0;	0,0
523,0430297851562;	964,25;	0,0;	0,0
523,1168823242188;	2179,5;	0,0;	0,0
523,190673828125;	2137,75;	0,0;	0,0
523,2644653320312;	795,75;	0,0;	0,0
523,3382568359375;	450,25;	0,0;	0,0
523,4119873046875;	449,5;	0,0;	0,0
523,4857788085938;	390,75;	0,0;	0,0
523,5595703125;	349,75;	0,0;	0,0
523,6332397460938;	333,25;	0,0;	0,0
523,7069702148438;	359,0;	0,0;	0,0
523,7807006835938;	372,75;	0,0;	0,0
523,8543701171875;	361,75;	0,0;	0,0
523,927978515625;	401,75;	0,0;	0,0
524,0016479492188;	428,0;	0,0;	0,0
524,0753173828125;	465,0;	0,0;	0,0
524,14892578125;	472,75;	0,0;	0,0
524,2225341796875;	377,75;	0,0;	0,0
524,2962036132812;	387,75;	0,0;	0,0
524,3698120117188;	336,0;	0,0;	0,0
524,443359375;	358,5;	0,0;	0,0
524,5169067382812;	369,75;	0,0;	0,0
524,5905151367188;	341,25;	0,0;	0,0
524,6640014648438;	364,25;	0,0;	0,0
524,7376098632812;	359,5;	0,0;	0,0
524,8110961914062;	396,75;	0,0;	0,0
524,8845825195312;	458,25;	0,0;	0,0
524,9580688476562;	419,0;	0,0;	0,0
525,0315551757812;	368,5;	0,0;	0,0
525,10498046875;	381,75;	0,0;	0,0
525,178466796875;	393,25;	0,0;	0,0
525,2518920898438;	390,0;	0,0;	0,0
525,3253173828125;	390,0;	0,0;	0,0
525,3987426757812;	368,75;	0,0;	0,0
525,47216796875;	359,25;	0,0;	0,0
525,5455322265625;	372,0;	0,0;	0,0
525,618896484375;	361,0;	0,0;	0,0
525,6922607421875;	338,0;	0,0;	0,0
525,765625;	342,75;	0,0;	0,0
525,8389892578125;	379,0;	0,0;	0,0
525,9122924804688;	403,0;	0,0;	0,0
525,9856567382812;	429,0;	0,0;	0,0
526,0588989257812;	506,5;	0,0;	0,0
526,1322021484375;	619,75;	0,0;	0,0
526,2054443359375;	628,5;	0,0;	0,0
526,2786865234375;	592,0;	0,0;	0,0
526,3519897460938;	594,5;	0,0;	0,0
526,4251098632812;	907,25;	0,0;	0,0
526,4984130859375;	1431,75;	0,0;	0,0
526,5715942382812;	1167,25;	0,0;	0,0
526,644775390625;	926,5;	0,0;	0,0
526,718017578125;	2156,25;	0,0;	0,0
526,7911376953125;	5289,5;	0,0;	0,0
526,8642578125;	4672,25;	0,0;	0,0
526,9374389648438;	1715,0;	0,0;	0,0
527,0105590820312;	618,25;	0,0;	0,0
527,0836791992188;	471,5;	0,0;	0,0
527,15673828125;	544,75;	0,0;	0,0
527,2298583984375;	479,0;	0,0;	0,0
527,3029174804688;	411,5;	0,0;	0,0
527,3760375976562;	416,0;	0,0;	0,0
527,4490356445312;	430,75;	0,0;	0,0
527,5220336914062;	380,75;	0,0;	0,0
527,5950927734375;	371,0;	0,0;	0,0
527,6680908203125;	357,25;	0,0;	0,0
527,7411499023438;	365,0;	0,0;	0,0
527,8140869140625;	393,25;	0,0;	0,0
527,8870849609375;	427,25;	0,0;	0,0
527,9600219726562;	567,5;	0,0;	0,0
528,032958984375;	725,0;	0,0;	0,0
528,1058959960938;	688,0;	0,0;	0,0
528,1788330078125;	803,0;	0,0;	0,0
528,251708984375;	856,0;	0,0;	0,0
528,3245849609375;	513,25;	0,0;	0,0
528,3974609375;	365,0;	0,0;	0,0
528,4703369140625;	356,0;	0,0;	0,0
528,543212890625;	372,5;	0,0;	0,0
528,6160278320312;	345,0;	0,0;	0,0
528,6888427734375;	375,0;	0,0;	0,0
528,7616577148438;	371,0;	0,0;	0,0
528,8344116210938;	371,5;	0,0;	0,0
528,9072265625;	340,75;	0,0;	0,0
528,97998046875;	358,0;	0,0;	0,0
529,0527954101562;	361,0;	0,0;	0,0
529,12548828125;	394,5;	0,0;	0,0
529,1982421875;	360,75;	0,0;	0,0
529,27099609375;	338,25;	0,0;	0,0
529,34375;	368,0;	0,0;	0,0
529,4163208007812;	404,5;	0,0;	0,0
529,4890747070312;	341,75;	0,0;	0,0
529,561767578125;	368,25;	0,0;	0,0
529,6343383789062;	340,5;	0,0;	0,0
529,70703125;	366,5;	0,0;	0,0
529,7796020507812;	369,25;	0,0;	0,0
529,8522338867188;	365,75;	0,0;	0,0
529,9249267578125;	392,5;	0,0;	0,0
529,9974365234375;	457,75;	0,0;	0,0
530,070068359375;	623,75;	0,0;	0,0
530,142578125;	569,0;	0,0;	0,0
530,2151489257812;	378,75;	0,0;	0,0
530,2876586914062;	373,75;	0,0;	0,0
530,3602294921875;	354,25;	0,0;	0,0
530,4326782226562;	352,25;	0,0;	0,0
530,5052490234375;	363,0;	0,0;	0,0
530,57763671875;	394,75;	0,0;	0,0
530,650146484375;	392,25;	0,0;	0,0
530,72265625;	341,5;	0,0;	0,0
530,7950439453125;	361,0;	0,0;	0,0
530,8674926757812;	376,5;	0,0;	0,0
530,93994140625;	359,25;	0,0;	0,0
531,0122680664062;	390,5;	0,0;	0,0
531,084716796875;	353,25;	0,0;	0,0
531,1571044921875;	360,5;	0,0;	0,0
531,2294311523438;	341,75;	0,0;	0,0
531,3018188476562;	383,5;	0,0;	0,0
531,3740844726562;	385,75;	0,0;	0,0
531,4464111328125;	407,5;	0,0;	0,0
531,518798828125;	471,75;	0,0;	0,0
531,591064453125;	434,25;	0,0;	0,0
531,6633911132812;	374,75;	0,0;	0,0
531,7356567382812;	371,25;	0,0;	0,0
531,807861328125;	375,75;	0,0;	0,0
531,880126953125;	354,75;	0,0;	0,0
531,9523315429688;	397,5;	0,0;	0,0
532,0245361328125;	407,25;	0,0;	0,0
532,0968017578125;	501,0;	0,0;	0,0
532,1689453125;	746,25;	0,0;	0,0
532,2411499023438;	1588,75;	0,0;	0,0
532,3133544921875;	1552,25;	0,0;	0,0
532,3854370117188;	748,0;	0,0;	0,0
532,4576416015625;	585,0;	0,0;	0,0
532,5297241210938;	1073,0;	0,0;	0,0
532,6018676757812;	2737,25;	0,0;	0,0
532,6739501953125;	4318,0;	0,0;	0,0
532,7459716796875;	2094,0;	0,0;	0,0
532,818115234375;	526,5;	0,0;	0,0
532,8901977539062;	400,0;	0,0;	0,0
532,9622192382812;	389,5;	0,0;	0,0
533,0342407226562;	393,5;	0,0;	0,0
533,1062622070312;	438,5;	0,0;	0,0
533,1782836914062;	421,25;	0,0;	0,0
533,2503051757812;	387,5;	0,0;	0,0
533,3222045898438;	388,25;	0,0;	0,0
533,3942260742188;	362,25;	0,0;	0,0
533,4661865234375;	356,75;	0,0;	0,0
533,5380859375;	373,0;	0,0;	0,0
533,6100463867188;	365,25;	0,0;	0,0
533,6819458007812;	414,0;	0,0;	0,0
533,7538452148438;	528,0;	0,0;	0,0
533,82568359375;	781,25;	0,0;	0,0
533,8976440429688;	970,5;	0,0;	0,0
533,9694213867188;	911,5;	0,0;	0,0
534,0413208007812;	523,0;	0,0;	0,0
534,1130981445312;	399,5;	0,0;	0,0
534,1849975585938;	394,5;	0,0;	0,0
534,2567749023438;	394,75;	0,0;	0,0
534,3284912109375;	400,75;	0,0;	0,0
534,4003295898438;	400,0;	0,0;	0,0
534,4721069335938;	397,75;	0,0;	0,0
534,5438842773438;	367,25;	0,0;	0,0
534,6156005859375;	407,75;	0,0;	0,0
534,6873779296875;	391,25;	0,0;	0,0
534,759033203125;	411,0;	0,0;	0,0
534,830810546875;	455,75;	0,0;	0,0
534,9024047851562;	414,0;	0,0;	0,0
534,97412109375;	370,75;	0,0;	0,0
535,0457763671875;	374,5;	0,0;	0,0
535,1173706054688;	388,5;	0,0;	0,0
535,1890869140625;	421,75;	0,0;	0,0
535,2607421875;	381,0;	0,0;	0,0
535,332275390625;	393,75;	0,0;	0,0
535,4038696289062;	363,75;	0,0;	0,0
535,4754638671875;	398,25;	0,0;	0,0
535,5469970703125;	357,25;	0,0;	0,0
535,6185913085938;	371,5;	0,0;	0,0
535,6901245117188;	387,75;	0,0;	0,0
535,7616577148438;	390,75;	0,0;	0,0
535,8331909179688;	396,0;	0,0;	0,0
535,9046630859375;	397,5;	0,0;	0,0
535,9761962890625;	422,25;	0,0;	0,0
536,047607421875;	419,75;	0,0;	0,0
536,1190185546875;	453,25;	0,0;	0,0
536,1905517578125;	519,0;	0,0;	0,0
536,2619018554688;	645,25;	0,0;	0,0
536,3333740234375;	830,5;	0,0;	0,0
536,4048461914062;	730,75;	0,0;	0,0
536,4761352539062;	694,5;	0,0;	0,0
536,5475463867188;	906,0;	0,0;	0,0
536,6189575195312;	939,5;	0,0;	0,0
536,6902465820312;	723,25;	0,0;	0,0
536,7615966796875;	796,75;	0,0;	0,0
536,8329467773438;	1159,25;	0,0;	0,0
536,9042358398438;	1504,5;	0,0;	0,0
536,9755859375;	2760,75;	0,0;	0,0
537,046875;	2439,5;	0,0;	0,0
537,1181030273438;	788,25;	0,0;	0,0
537,1893920898438;	463,5;	0,0;	0,0
537,2606201171875;	426,25;	0,0;	0,0
537,3319091796875;	391,25;	0,0;	0,0
537,403076171875;	382,25;	0,0;	0,0
537,4743041992188;	392,5;	0,0;	0,0
537,5454711914062;	401,25;	0,0;	0,0
537,6165771484375;	419,0;	0,0;	0,0
537,6878051757812;	424,0;	0,0;	0,0
537,7589721679688;	411,5;	0,0;	0,0
537,830078125;	460,25;	0,0;	0,0
537,9012451171875;	439,0;	0,0;	0,0
537,9723510742188;	492,0;	0,0;	0,0
538,0433959960938;	644,0;	0,0;	0,0
538,1145629882812;	1033,25;	0,0;	0,0
538,1856079101562;	1293,5;	0,0;	0,0
538,2566528320312;	959,0;	0,0;	0,0
538,3276977539062;	529,0;	0,0;	0,0
538,398681640625;	474,0;	0,0;	0,0
538,4697265625;	420,0;	0,0;	0,0
538,5408325195312;	397,75;	0,0;	0,0
538,6117553710938;	378,0;	0,0;	0,0
538,6827392578125;	407,0;	0,0;	0,0
538,753662109375;	455,5;	0,0;	0,0
538,8246459960938;	494,0;	0,0;	0,0
538,8956298828125;	443,75;	0,0;	0,0
538,9664916992188;	443,0;	0,0;	0,0
539,0374145507812;	506,0;	0,0;	0,0
539,1083374023438;	544,75;	0,0;	0,0
539,1791381835938;	743,5;	0,0;	0,0
539,2500610351562;	608,25;	0,0;	0,0
539,3209228515625;	468,0;	0,0;	0,0
539,3917236328125;	516,5;	0,0;	0,0
539,4625854492188;	769,75;	0,0;	0,0
539,5333862304688;	1612,25;	0,0;	0,0
539,6041870117188;	1682,5;	0,0;	0,0
539,6749877929688;	821,5;	0,0;	0,0
539,7457275390625;	474,25;	0,0;	0,0
539,8165283203125;	525,75;	0,0;	0,0
539,8872680664062;	592,5;	0,0;	0,0
539,9580078125;	599,25;	0,0;	0,0
540,0286865234375;	553,75;	0,0;	0,0
540,0994873046875;	642,0;	0,0;	0,0
540,170166015625;	917,75;	0,0;	0,0
540,2408447265625;	1399,75;	0,0;	0,0
540,3114624023438;	1406,5;	0,0;	0,0
540,3821411132812;	1799,75;	0,0;	0,0
540,4528198242188;	2029,0;	0,0;	0,0
540,5233764648438;	1044,25;	0,0;	0,0
540,5940551757812;	469,75;	0,0;	0,0
540,6646728515625;	457,75;	0,0;	0,0
540,7351684570312;	500,25;	0,0;	0,0
540,8057861328125;	575,5;	0,0;	0,0
540,8763427734375;	774,0;	0,0;	0,0
540,9468383789062;	901,75;	0,0;	0,0
541,0174560546875;	664,25;	0,0;	0,0
541,087890625;	526,5;	0,0;	0,0
541,158447265625;	545,75;	0,0;	0,0
541,2289428710938;	650,5;	0,0;	0,0
541,2994384765625;	930,75;	0,0;	0,0
541,369873046875;	1249,5;	0,0;	0,0
541,4403686523438;	807,75;	0,0;	0,0
541,5107421875;	521,75;	0,0;	0,0
541,5811767578125;	463,75;	0,0;	0,0
541,6515502929688;	427,25;	0,0;	0,0
541,7219848632812;	439,25;	0,0;	0,0
541,7923583984375;	438,75;	0,0;	0,0
541,8627319335938;	446,25;	0,0;	0,0
541,93310546875;	471,75;	0,0;	0,0
542,0034790039062;	517,0;	0,0;	0,0
542,07373046875;	592,0;	0,0;	0,0
542,1441040039062;	866,75;	0,0;	0,0
542,21435546875;	1250,0;	0,0;	0,0
542,28466796875;	1318,75;	0,0;	0,0
542,3549194335938;	763,5;	0,0;	0,0
542,4251708984375;	506,0;	0,0;	0,0
542,4954833984375;	475,25;	0,0;	0,0
542,5657348632812;	434,0;	0,0;	0,0
542,6358642578125;	500,25;	0,0;	0,0
542,7061157226562;	757,75;	0,0;	0,0
542,7763671875;	1679,0;	0,0;	0,0
542,846435546875;	2121,5;	0,0;	0,0
542,9166870117188;	1008,5;	0,0;	0,0
542,98681640625;	437,5;	0,0;	0,0
543,0569458007812;	451,75;	0,0;	0,0
543,1271362304688;	503,5;	0,0;	0,0
543,1971435546875;	667,25;	0,0;	0,0
543,267333984375;	1171,25;	0,0;	0,0
543,33740234375;	1271,75;	0,0;	0,0
543,407470703125;	693,75;	0,0;	0,0
543,4774780273438;	428,25;	0,0;	0,0
543,547607421875;	438,0;	0,0;	0,0
543,6175537109375;	407,5;	0,0;	0,0
543,6876220703125;	409,75;	0,0;	0,0
543,7576293945312;	395,75;	0,0;	0,0
543,8275756835938;	384,0;	0,0;	0,0
543,8975830078125;	391,5;	0,0;	0,0
543,9674682617188;	387,75;	0,0;	0,0
544,0374755859375;	422,25;	0,0;	0,0
544,107421875;	429,25;	0,0;	0,0
544,1773071289062;	469,5;	0,0;	0,0
544,2472534179688;	558,25;	0,0;	0,0
544,317138671875;	729,75;	0,0;	0,0
544,386962890625;	805,0;	0,0;	0,0
544,4568481445312;	1056,5;	0,0;	0,0
544,5266723632812;	2017,25;	0,0;	0,0
544,5965576171875;	1679,5;	0,0;	0,0
544,6663818359375;	700,75;	0,0;	0,0
544,7361450195312;	441,0;	0,0;	0,0
544,8060302734375;	384,25;	0,0;	0,0
544,8757934570312;	403,5;	0,0;	0,0
544,945556640625;	404,25;	0,0;	0,0
545,0153198242188;	436,75;	0,0;	0,0
545,0850830078125;	427,0;	0,0;	0,0
545,15478515625;	453,5;	0,0;	0,0
545,2244873046875;	560,25;	0,0;	0,0
545,294189453125;	773,0;	0,0;	0,0
545,3639526367188;	1411,25;	0,0;	0,0
545,43359375;	1768,5;	0,0;	0,0
545,5032348632812;	955,75;	0,0;	0,0
545,5729370117188;	487,5;	0,0;	0,0
545,6424560546875;	420,0;	0,0;	0,0
545,712158203125;	450,5;	0,0;	0,0
545,78173828125;	410,75;	0,0;	0,0
545,851318359375;	404,25;	0,0;	0,0
545,9208984375;	442,25;	0,0;	0,0
545,9905395507812;	480,0;	0,0;	0,0
546,0599975585938;	525,25;	0,0;	0,0
546,1295776367188;	688,25;	0,0;	0,0
546,1990966796875;	693,5;	0,0;	0,0
546,2686157226562;	526,5;	0,0;	0,0
546,338134765625;	451,0;	0,0;	0,0
546,4075317382812;	453,5;	0,0;	0,0
546,4771118164062;	487,5;	0,0;	0,0
546,5465698242188;	462,25;	0,0;	0,0
546,615966796875;	452,25;	0,0;	0,0
546,6853637695312;	402,0;	0,0;	0,0
546,7548217773438;	380,25;	0,0;	0,0
546,82421875;	407,75;	0,0;	0,0
546,8936157226562;	402,0;	0,0;	0,0
546,9630126953125;	406,0;	0,0;	0,0
547,0323486328125;	409,0;	0,0;	0,0
547,1016845703125;	440,0;	0,0;	0,0
547,1710205078125;	478,25;	0,0;	0,0
547,2403564453125;	528,5;	0,0;	0,0
547,3096923828125;	494,5;	0,0;	0,0
547,37890625;	492,5;	0,0;	0,0
547,4482421875;	584,0;	0,0;	0,0
547,5175170898438;	679,0;	0,0;	0,0
547,586669921875;	560,75;	0,0;	0,0
547,6559448242188;	446,75;	0,0;	0,0
547,7252197265625;	423,25;	0,0;	0,0
547,7943725585938;	419,0;	0,0;	0,0
547,8636474609375;	474,5;	0,0;	0,0
547,9327392578125;	471,75;	0,0;	0,0
548,001953125;	512,75;	0,0;	0,0
548,0711059570312;	457,5;	0,0;	0,0
548,1401977539062;	453,0;	0,0;	0,0
548,2093505859375;	444,25;	0,0;	0,0
548,2784423828125;	431,75;	0,0;	0,0
548,3475341796875;	464,25;	0,0;	0,0
548,4166259765625;	407,75;	0,0;	0,0
548,4857177734375;	418,5;	0,0;	0,0
548,5547485351562;	421,0;	0,0;	0,0
548,6238403320312;	477,75;	0,0;	0,0
548,6928100585938;	513,5;	0,0;	0,0
548,7619018554688;	448,25;	0,0;	0,0
548,8309326171875;	451,25;	0,0;	0,0
548,8998413085938;	438,0;	0,0;	0,0
548,9688720703125;	438,25;	0,0;	0,0
549,0377807617188;	429,25;	0,0;	0,0
549,1067504882812;	442,5;	0,0;	0,0
549,1756591796875;	435,0;	0,0;	0,0
549,2445678710938;	460,5;	0,0;	0,0
549,3135375976562;	441,0;	0,0;	0,0
549,3824462890625;	437,5;	0,0;	0,0
549,4512939453125;	433,25;	0,0;	0,0
549,5201416015625;	486,0;	0,0;	0,0
549,5890502929688;	646,75;	0,0;	0,0
549,6578369140625;	626,0;	0,0;	0,0
549,7266845703125;	476,25;	0,0;	0,0
549,7954711914062;	445,5;	0,0;	0,0
549,8642578125;	459,5;	0,0;	0,0
549,93310546875;	517,25;	0,0;	0,0
550,0017700195312;	554,5;	0,0;	0,0
550,070556640625;	499,5;	0,0;	0,0
550,1393432617188;	467,75;	0,0;	0,0
550,2080078125;	447,75;	0,0;	0,0
550,2767944335938;	443,5;	0,0;	0,0
550,345458984375;	467,25;	0,0;	0,0
550,4141235351562;	549,25;	0,0;	0,0
550,4828491210938;	658,75;	0,0;	0,0
550,5513916015625;	752,75;	0,0;	0,0
550,6201171875;	543,25;	0,0;	0,0
550,688720703125;	502,5;	0,0;	0,0
550,75732421875;	458,0;	0,0;	0,0
550,8259887695312;	451,25;	0,0;	0,0
550,89453125;	427,25;	0,0;	0,0
550,9630737304688;	491,0;	0,0;	0,0
551,0316772460938;	465,75;	0,0;	0,0
551,1002197265625;	470,5;	0,0;	0,0
551,1687622070312;	453,5;	0,0;	0,0
551,2373046875;	459,5;	0,0;	0,0
551,3057250976562;	462,5;	0,0;	0,0
551,374267578125;	478,25;	0,0;	0,0
551,4427490234375;	469,75;	0,0;	0,0
551,5111694335938;	428,75;	0,0;	0,0
551,5796508789062;	458,75;	0,0;	0,0
551,6480102539062;	457,25;	0,0;	0,0
551,7164916992188;	463,5;	0,0;	0,0
551,7849731445312;	469,75;	0,0;	0,0
551,8533325195312;	459,25;	0,0;	0,0
551,9216918945312;	480,25;	0,0;	0,0
551,9901123046875;	472,5;	0,0;	0,0
552,0584106445312;	501,25;	0,0;	0,0
552,1267700195312;	510,75;	0,0;	0,0
552,195068359375;	478,5;	0,0;	0,0
552,2633666992188;	463,0;	0,0;	0,0
552,3316650390625;	468,75;	0,0;	0,0
552,39990234375;	490,0;	0,0;	0,0
552,46826171875;	482,75;	0,0;	0,0
552,5364990234375;	476,25;	0,0;	0,0
552,6046752929688;	474,0;	0,0;	0,0
552,6729736328125;	446,25;	0,0;	0,0
552,7412109375;	483,5;	0,0;	0,0
552,809326171875;	459,75;	0,0;	0,0
552,8775634765625;	485,0;	0,0;	0,0
552,9457397460938;	477,5;	0,0;	0,0
553,0138549804688;	481,5;	0,0;	0,0
553,08203125;	493,25;	0,0;	0,0
553,150146484375;	495,25;	0,0;	0,0
553,2182006835938;	513,5;	0,0;	0,0
553,286376953125;	528,75;	0,0;	0,0
553,3544311523438;	675,75;	0,0;	0,0
553,4225463867188;	733,0;	0,0;	0,0
553,4906005859375;	604,5;	0,0;	0,0
553,55859375;	502,75;	0,0;	0,0
553,626708984375;	530,25;	0,0;	0,0
553,6947021484375;	486,75;	0,0;	0,0
553,7626953125;	502,5;	0,0;	0,0
553,8306884765625;	518,75;	0,0;	0,0
553,8986206054688;	493,25;	0,0;	0,0
553,9666137695312;	489,0;	0,0;	0,0
554,0346069335938;	495,25;	0,0;	0,0
554,1024780273438;	535,75;	0,0;	0,0
554,1704711914062;	556,25;	0,0;	0,0
554,2384033203125;	530,0;	0,0;	0,0
554,3062133789062;	531,0;	0,0;	0,0
554,3740844726562;	542,5;	0,0;	0,0
554,4419555664062;	496,75;	0,0;	0,0
554,509765625;	539,5;	0,0;	0,0
554,57763671875;	513,5;	0,0;	0,0
554,6454467773438;	492,0;	0,0;	0,0
554,7133178710938;	489,75;	0,0;	0,0
554,7810668945312;	537,25;	0,0;	0,0
554,8488159179688;	464,25;	0,0;	0,0
554,9166259765625;	494,25;	0,0;	0,0
554,9843139648438;	477,5;	0,0;	0,0
555,0521240234375;	467,75;	0,0;	0,0
555,119873046875;	471,5;	0,0;	0,0
555,1875;	512,5;	0,0;	0,0
555,2552490234375;	518,5;	0,0;	0,0
555,3229370117188;	564,25;	0,0;	0,0
555,390625;	579,25;	0,0;	0,0
555,458251953125;	533,25;	0,0;	0,0
555,52587890625;	484,25;	0,0;	0,0
555,593505859375;	523,25;	0,0;	0,0
555,6611328125;	484,5;	0,0;	0,0
555,7286987304688;	462,5;	0,0;	0,0
555,7963256835938;	486,0;	0,0;	0,0
555,8638916015625;	512,0;	0,0;	0,0
555,931396484375;	467,0;	0,0;	0,0
555,9989624023438;	498,25;	0,0;	0,0
556,0665283203125;	536,75;	0,0;	0,0
556,1339721679688;	568,0;	0,0;	0,0
556,2014770507812;	578,5;	0,0;	0,0
556,26904296875;	533,0;	0,0;	0,0
556,3364868164062;	532,5;	0,0;	0,0
556,4039306640625;	604,25;	0,0;	0,0
556,4713134765625;	568,0;	0,0;	0,0
556,538818359375;	500,25;	0,0;	0,0
556,6062622070312;	498,0;	0,0;	0,0
556,673583984375;	549,75;	0,0;	0,0
556,7410278320312;	660,5;	0,0;	0,0
556,8084716796875;	925,0;	0,0;	0,0
556,875732421875;	834,0;	0,0;	0,0
556,943115234375;	610,0;	0,0;	0,0
557,010498046875;	602,75;	0,0;	0,0
557,0776977539062;	892,75;	0,0;	0,0
557,1450805664062;	1247,0;	0,0;	0,0
557,2123413085938;	953,0;	0,0;	0,0
557,2796020507812;	608,5;	0,0;	0,0
557,346923828125;	505,25;	0,0;	0,0
557,4141235351562;	599,25;	0,0;	0,0
557,4813232421875;	683,5;	0,0;	0,0
557,5485229492188;	555,0;	0,0;	0,0
557,6157836914062;	467,75;	0,0;	0,0
557,6829833984375;	450,0;	0,0;	0,0
557,7501831054688;	455,0;	0,0;	0,0
557,8173217773438;	449,25;	0,0;	0,0
557,8844604492188;	451,0;	0,0;	0,0
557,9515991210938;	481,75;	0,0;	0,0
558,0187377929688;	474,0;	0,0;	0,0
558,0858764648438;	524,5;	0,0;	0,0
558,1528930664062;	478,0;	0,0;	0,0
558,219970703125;	461,0;	0,0;	0,0
558,2869873046875;	469,75;	0,0;	0,0
558,3540649414062;	598,0;	0,0;	0,0
558,421142578125;	684,25;	0,0;	0,0
558,4881591796875;	1358,0;	0,0;	0,0
558,55517578125;	1763,0;	0,0;	0,0
558,6221923828125;	1194,75;	0,0;	0,0
558,6891479492188;	1000,0;	0,0;	0,0
558,7561645507812;	961,5;	0,0;	0,0
558,8230590820312;	744,5;	0,0;	0,0
558,8900146484375;	580,5;	0,0;	0,0
558,9569702148438;	519,75;	0,0;	0,0
559,0238037109375;	502,5;	0,0;	0,0
559,0906982421875;	469,25;	0,0;	0,0
559,1576538085938;	510,25;	0,0;	0,0
559,2244262695312;	605,75;	0,0;	0,0
559,2913208007812;	776,25;	0,0;	0,0
559,358154296875;	708,75;	0,0;	0,0
559,4249877929688;	533,0;	0,0;	0,0
559,4918212890625;	472,5;	0,0;	0,0
559,5586547851562;	500,25;	0,0;	0,0
559,6253662109375;	614,0;	0,0;	0,0
559,692138671875;	786,75;	0,0;	0,0
559,7589111328125;	649,5;	0,0;	0,0
559,8256225585938;	535,75;	0,0;	0,0
559,8923950195312;	488,5;	0,0;	0,0
559,9590454101562;	559,0;	0,0;	0,0
560,0257568359375;	571,75;	0,0;	0,0
560,0924682617188;	664,25;	0,0;	0,0
560,1591186523438;	726,75;	0,0;	0,0
560,225830078125;	607,25;	0,0;	0,0
560,29248046875;	495,5;	0,0;	0,0
560,3590698242188;	479,25;	0,0;	0,0
560,4256591796875;	436,5;	0,0;	0,0
560,4921875;	466,75;	0,0;	0,0
560,5587768554688;	447,0;	0,0;	0,0
560,6254272460938;	428,25;	0,0;	0,0
560,6919555664062;	429,5;	0,0;	0,0
560,7584838867188;	452,75;	0,0;	0,0
560,824951171875;	434,25;	0,0;	0,0
560,8914794921875;	424,0;	0,0;	0,0
560,9580688476562;	473,0;	0,0;	0,0
561,0245361328125;	475,25;	0,0;	0,0
561,0909423828125;	486,75;	0,0;	0,0
561,157470703125;	471,5;	0,0;	0,0
561,2238159179688;	534,0;	0,0;	0,0
561,2903442382812;	816,0;	0,0;	0,0
561,3567504882812;	1509,5;	0,0;	0,0
561,4231567382812;	2392,25;	0,0;	0,0
561,489501953125;	1695,75;	0,0;	0,0
561,5558471679688;	791,0;	0,0;	0,0
561,6222534179688;	539,0;	0,0;	0,0
561,6885986328125;	561,25;	0,0;	0,0
561,7548828125;	518,0;	0,0;	0,0
561,8211669921875;	499,25;	0,0;	0,0
561,8875122070312;	508,0;	0,0;	0,0
561,9537963867188;	518,5;	0,0;	0,0
562,0200805664062;	510,5;	0,0;	0,0
562,0863647460938;	500,0;	0,0;	0,0
562,152587890625;	534,5;	0,0;	0,0
562,2188110351562;	597,0;	0,0;	0,0
562,2849731445312;	760,75;	0,0;	0,0
562,3511962890625;	734,25;	0,0;	0,0
562,4174194335938;	569,0;	0,0;	0,0
562,4835205078125;	490,75;	0,0;	0,0
562,5496826171875;	498,0;	0,0;	0,0
562,6159057617188;	464,25;	0,0;	0,0
562,6820068359375;	492,5;	0,0;	0,0
562,748046875;	477,0;	0,0;	0,0
562,814208984375;	517,75;	0,0;	0,0
562,8803100585938;	494,5;	0,0;	0,0
562,9463500976562;	510,0;	0,0;	0,0
563,0123901367188;	505,25;	0,0;	0,0
563,0784301757812;	497,5;	0,0;	0,0
563,14453125;	474,25;	0,0;	0,0
563,21044921875;	512,75;	0,0;	0,0
563,2764892578125;	539,5;	0,0;	0,0
563,3424682617188;	513,5;	0,0;	0,0
563,408447265625;	503,25;	0,0;	0,0
563,4744262695312;	491,0;	0,0;	0,0
563,5404052734375;	531,75;	0,0;	0,0
563,6062622070312;	520,75;	0,0;	0,0
563,6722412109375;	561,25;	0,0;	0,0
563,7380981445312;	533,0;	0,0;	0,0
563,8040161132812;	564,0;	0,0;	0,0
563,869873046875;	520,75;	0,0;	0,0
563,9356689453125;	500,75;	0,0;	0,0
564,0015258789062;	512,5;	0,0;	0,0
564,0673217773438;	512,5;	0,0;	0,0
564,1331787109375;	502,5;	0,0;	0,0
564,1990356445312;	543,75;	0,0;	0,0
564,2647705078125;	492,25;	0,0;	0,0
564,3305053710938;	489,75;	0,0;	0,0
564,3963012695312;	479,75;	0,0;	0,0
564,4620361328125;	487,25;	0,0;	0,0
564,5277709960938;	494,75;	0,0;	0,0
564,593505859375;	475,5;	0,0;	0,0
564,6591796875;	513,25;	0,0;	0,0
564,7249145507812;	505,75;	0,0;	0,0
564,7904663085938;	484,0;	0,0;	0,0
564,856201171875;	530,25;	0,0;	0,0
564,9218139648438;	552,25;	0,0;	0,0
564,9874877929688;	542,5;	0,0;	0,0
565,0530395507812;	522,25;	0,0;	0,0
565,1187133789062;	521,5;	0,0;	0,0
565,1842651367188;	528,0;	0,0;	0,0
565,2498168945312;	545,0;	0,0;	0,0
565,3153686523438;	566,25;	0,0;	0,0
565,3809204101562;	567,0;	0,0;	0,0
565,4464721679688;	555,25;	0,0;	0,0
565,511962890625;	520,5;	0,0;	0,0
565,5774536132812;	557,5;	0,0;	0,0
565,6429443359375;	587,5;	0,0;	0,0
565,7083740234375;	805,0;	0,0;	0,0
565,7738647460938;	783,5;	0,0;	0,0
565,83935546875;	642,75;	0,0;	0,0
565,9047241210938;	510,75;	0,0;	0,0
565,9701538085938;	530,75;	0,0;	0,0
566,0355834960938;	570,5;	0,0;	0,0
566,1009521484375;	664,75;	0,0;	0,0
566,1663208007812;	625,75;	0,0;	0,0
566,2316284179688;	555,25;	0,0;	0,0
566,2969970703125;	558,75;	0,0;	0,0
566,3623657226562;	499,25;	0,0;	0,0
566,4276123046875;	505,25;	0,0;	0,0
566,4929809570312;	559,75;	0,0;	0,0
566,5582275390625;	524,0;	0,0;	0,0
566,6234741210938;	523,25;	0,0;	0,0
566,688720703125;	512,5;	0,0;	0,0
566,7540283203125;	545,0;	0,0;	0,0
566,8192138671875;	557,75;	0,0;	0,0
566,8843994140625;	533,5;	0,0;	0,0
566,9495849609375;	520,0;	0,0;	0,0
567,0147705078125;	517,25;	0,0;	0,0
567,0799560546875;	506,0;	0,0;	0,0
567,1451416015625;	520,25;	0,0;	0,0
567,2102661132812;	529,75;	0,0;	0,0
567,2753295898438;	518,5;	0,0;	0,0
567,3405151367188;	543,0;	0,0;	0,0
567,4055786132812;	529,5;	0,0;	0,0
567,4706420898438;	545,5;	0,0;	0,0
567,5357055664062;	552,75;	0,0;	0,0
567,600830078125;	551,75;	0,0;	0,0
567,6658325195312;	556,0;	0,0;	0,0
567,7308959960938;	548,75;	0,0;	0,0
567,7958374023438;	554,25;	0,0;	0,0
567,86083984375;	572,75;	0,0;	0,0
567,9258422851562;	553,75;	0,0;	0,0
567,9907836914062;	601,5;	0,0;	0,0
568,0557250976562;	776,75;	0,0;	0,0
568,1207275390625;	895,5;	0,0;	0,0
568,185546875;	888,75;	0,0;	0,0
568,25048828125;	806,25;	0,0;	0,0
568,3153686523438;	705,75;	0,0;	0,0
568,3802490234375;	756,75;	0,0;	0,0
568,4451293945312;	724,25;	0,0;	0,0
568,5100708007812;	776,25;	0,0;	0,0
568,5748291015625;	833,5;	0,0;	0,0
568,6396484375;	1133,25;	0,0;	0,0
568,7044677734375;	1342,25;	0,0;	0,0
568,769287109375;	1234,5;	0,0;	0,0
568,8340454101562;	1022,5;	0,0;	0,0
568,8987426757812;	788,75;	0,0;	0,0
568,9635009765625;	709,0;	0,0;	0,0
569,0282592773438;	659,5;	0,0;	0,0
569,0929565429688;	606,25;	0,0;	0,0
569,15771484375;	588,75;	0,0;	0,0
569,222412109375;	581,25;	0,0;	0,0
569,2870483398438;	528,0;	0,0;	0,0
569,3517456054688;	539,75;	0,0;	0,0
569,4163818359375;	565,0;	0,0;	0,0
569,4810180664062;	544,75;	0,0;	0,0
569,5455932617188;	539,5;	0,0;	0,0
569,6102294921875;	534,5;	0,0;	0,0
569,6748657226562;	553,25;	0,0;	0,0
569,7393188476562;	524,5;	0,0;	0,0
569,803955078125;	511,75;	0,0;	0,0
569,8685302734375;	508,75;	0,0;	0,0
569,9330444335938;	537,25;	0,0;	0,0
569,9974975585938;	556,5;	0,0;	0,0
570,0620727539062;	573,75;	0,0;	0,0
570,1265258789062;	557,75;	0,0;	0,0
570,1910400390625;	527,75;	0,0;	0,0
570,2554931640625;	509,0;	0,0;	0,0
570,3198852539062;	505,25;	0,0;	0,0
570,3843383789062;	551,25;	0,0;	0,0
570,44873046875;	581,75;	0,0;	0,0
570,51318359375;	563,25;	0,0;	0,0
570,5775756835938;	531,0;	0,0;	0,0
570,6419067382812;	530,0;	0,0;	0,0
570,706298828125;	607,5;	0,0;	0,0
570,7706298828125;	652,75;	0,0;	0,0
570,8349609375;	677,5;	0,0;	0,0
570,8992919921875;	581,0;	0,0;	0,0
570,963623046875;	499,5;	0,0;	0,0
571,02783203125;	508,25;	0,0;	0,0
571,0921020507812;	497,25;	0,0;	0,0
571,1563110351562;	516,75;	0,0;	0,0
571,2206420898438;	482,5;	0,0;	0,0
571,2848510742188;	499,25;	0,0;	0,0
571,3489990234375;	513,0;	0,0;	0,0
571,4132080078125;	508,5;	0,0;	0,0
571,4774169921875;	466,75;	0,0;	0,0
571,5415649414062;	476,25;	0,0;	0,0
571,6057739257812;	501,5;	0,0;	0,0
571,6698608398438;	529,0;	0,0;	0,0
571,7340087890625;	511,25;	0,0;	0,0
571,7981567382812;	490,25;	0,0;	0,0
571,8621826171875;	496,0;	0,0;	0,0
571,92626953125;	487,75;	0,0;	0,0
571,9904174804688;	483,5;	0,0;	0,0
572,0543823242188;	477,0;	0,0;	0,0
572,1184692382812;	519,0;	0,0;	0,0
572,1824951171875;	476,0;	0,0;	0,0
572,2464599609375;	483,25;	0,0;	0,0
572,3104858398438;	478,25;	0,0;	0,0
572,3744506835938;	476,5;	0,0;	0,0
572,4384155273438;	484,0;	0,0;	0,0
572,5023803710938;	468,5;	0,0;	0,0
572,5662841796875;	511,5;	0,0;	0,0
572,6301879882812;	489,0;	0,0;	0,0
572,6941528320312;	516,75;	0,0;	0,0
572,7579956054688;	518,0;	0,0;	0,0
572,8218383789062;	442,75;	0,0;	0,0
572,8856811523438;	511,25;	0,0;	0,0
572,9495849609375;	472,5;	0,0;	0,0
573,013427734375;	505,75;	0,0;	0,0
573,0772705078125;	459,0;	0,0;	0,0
573,1410522460938;	476,75;	0,0;	0,0
573,204833984375;	475,0;	0,0;	0,0
573,2686157226562;	470,75;	0,0;	0,0
573,3323364257812;	484,25;	0,0;	0,0
573,3961181640625;	447,0;	0,0;	0,0
573,4598388671875;	487,75;	0,0;	0,0
573,5235595703125;	493,0;	0,0;	0,0
573,5872192382812;	505,25;	0,0;	0,0
573,6509399414062;	495,5;	0,0;	0,0
573,714599609375;	471,5;	0,0;	0,0
573,7781982421875;	466,25;	0,0;	0,0
573,8418579101562;	485,5;	0,0;	0,0
573,905517578125;	470,0;	0,0;	0,0
573,9691162109375;	500,75;	0,0;	0,0
574,0327758789062;	457,75;	0,0;	0,0
574,0963745117188;	474,5;	0,0;	0,0
574,1598510742188;	456,25;	0,0;	0,0
574,2234497070312;	440,0;	0,0;	0,0
574,2869873046875;	476,25;	0,0;	0,0
574,3504638671875;	497,25;	0,0;	0,0
574,4140014648438;	481,75;	0,0;	0,0
574,4775390625;	489,5;	0,0;	0,0
574,5409545898438;	494,5;	0,0;	0,0
574,6044921875;	466,0;	0,0;	0,0
574,6679077148438;	477,0;	0,0;	0,0
574,7313232421875;	477,25;	0,0;	0,0
574,7947998046875;	445,75;	0,0;	0,0
574,858154296875;	465,75;	0,0;	0,0
574,9215698242188;	454,5;	0,0;	0,0
574,98486328125;	499,5;	0,0;	0,0
575,04833984375;	508,5;	0,0;	0,0
575,1116943359375;	561,25;	0,0;	0,0
575,1749877929688;	547,75;	0,0;	0,0
575,2383422851562;	528,75;	0,0;	0,0
575,3016357421875;	485,25;	0,0;	0,0
575,3648681640625;	492,25;	0,0;	0,0
575,42822265625;	467,5;	0,0;	0,0
575,491455078125;	496,25;	0,0;	0,0
575,5546264648438;	460,25;	0,0;	0,0
575,617919921875;	480,0;	0,0;	0,0
575,6810913085938;	462,0;	0,0;	0,0
575,7442626953125;	457,75;	0,0;	0,0
575,8074951171875;	495,0;	0,0;	0,0
575,8706665039062;	468,0;	0,0;	0,0
575,933837890625;	501,0;	0,0;	0,0
575,9969482421875;	514,0;	0,0;	0,0
576,06005859375;	496,25;	0,0;	0,0
576,1232299804688;	639,0;	0,0;	0,0
576,186279296875;	644,0;	0,0;	0,0
576,2493896484375;	553,0;	0,0;	0,0
576,3125;	501,0;	0,0;	0,0
576,37548828125;	467,5;	0,0;	0,0
576,4385375976562;	458,5;	0,0;	0,0
576,5015869140625;	512,0;	0,0;	0,0
576,5645751953125;	485,5;	0,0;	0,0
576,6275634765625;	486,5;	0,0;	0,0
576,6904907226562;	477,75;	0,0;	0,0
576,7534790039062;	515,25;	0,0;	0,0
576,8164672851562;	462,5;	0,0;	0,0
576,87939453125;	462,75;	0,0;	0,0
576,9423217773438;	447,75;	0,0;	0,0
577,0052490234375;	474,25;	0,0;	0,0
577,068115234375;	480,5;	0,0;	0,0
577,1309814453125;	454,25;	0,0;	0,0
577,1939086914062;	495,75;	0,0;	0,0
577,2567138671875;	469,75;	0,0;	0,0
577,3195190429688;	508,0;	0,0;	0,0
577,38232421875;	511,75;	0,0;	0,0
577,4451293945312;	431,5;	0,0;	0,0
577,5079956054688;	465,75;	0,0;	0,0
577,5706787109375;	476,75;	0,0;	0,0
577,6334838867188;	506,5;	0,0;	0,0
577,6962890625;	508,75;	0,0;	0,0
577,7589721679688;	447,25;	0,0;	0,0
577,8216552734375;	473,25;	0,0;	0,0
577,8843994140625;	469,75;	0,0;	0,0
577,947021484375;	492,75;	0,0;	0,0
578,009765625;	516,75;	0,0;	0,0
578,0723876953125;	527,0;	0,0;	0,0
578,135009765625;	536,0;	0,0;	0,0
578,1976928710938;	551,75;	0,0;	0,0
578,2601928710938;	477,75;	0,0;	0,0
578,3228149414062;	498,25;	0,0;	0,0
578,3854370117188;	477,0;	0,0;	0,0
578,447998046875;	489,5;	0,0;	0,0
578,5105590820312;	469,25;	0,0;	0,0
578,5731201171875;	468,25;	0,0;	0,0
578,6356201171875;	518,5;	0,0;	0,0
578,6981811523438;	476,5;	0,0;	0,0
578,7605590820312;	519,75;	0,0;	0,0
578,8231201171875;	564,5;	0,0;	0,0
578,8855590820312;	569,0;	0,0;	0,0
578,9479370117188;	523,75;	0,0;	0,0
579,0104370117188;	540,75;	0,0;	0,0
579,0728149414062;	481,75;	0,0;	0,0
579,1351928710938;	499,25;	0,0;	0,0
579,1976318359375;	532,0;	0,0;	0,0
579,260009765625;	517,75;	0,0;	0,0
579,3223266601562;	507,25;	0,0;	0,0
579,3847045898438;	509,25;	0,0;	0,0
579,447021484375;	493,0;	0,0;	0,0
579,5093383789062;	491,0;	0,0;	0,0
579,5716552734375;	496,75;	0,0;	0,0
579,6339111328125;	479,0;	0,0;	0,0
579,6962280273438;	493,5;	0,0;	0,0
579,7583618164062;	477,0;	0,0;	0,0
579,8206787109375;	490,5;	0,0;	0,0
579,8829345703125;	519,75;	0,0;	0,0
579,9451293945312;	518,5;	0,0;	0,0
580,0072631835938;	545,75;	0,0;	0,0
580,0695190429688;	577,0;	0,0;	0,0
580,131591796875;	552,25;	0,0;	0,0
580,1937866210938;	526,75;	0,0;	0,0
580,2559204101562;	520,25;	0,0;	0,0
580,3180541992188;	518,75;	0,0;	0,0
580,3801879882812;	504,5;	0,0;	0,0
580,4421997070312;	502,0;	0,0;	0,0
580,5043334960938;	538,25;	0,0;	0,0
580,56640625;	520,0;	0,0;	0,0
580,62841796875;	517,75;	0,0;	0,0
580,6904907226562;	517,75;	0,0;	0,0
580,7525024414062;	530,5;	0,0;	0,0
580,814453125;	546,0;	0,0;	0,0
580,87646484375;	531,5;	0,0;	0,0
580,9384765625;	503,25;	0,0;	0,0
581,0003662109375;	533,75;	0,0;	0,0
581,0623779296875;	554,25;	0,0;	0,0
581,124267578125;	523,0;	0,0;	0,0
581,1861572265625;	506,25;	0,0;	0,0
581,2481079101562;	515,5;	0,0;	0,0
581,3099365234375;	547,25;	0,0;	0,0
581,371826171875;	527,5;	0,0;	0,0
581,4336547851562;	550,0;	0,0;	0,0
581,4954833984375;	566,0;	0,0;	0,0
581,557373046875;	532,75;	0,0;	0,0
581,619140625;	517,5;	0,0;	0,0
581,680908203125;	526,25;	0,0;	0,0
581,7427368164062;	516,5;	0,0;	0,0
581,804443359375;	518,5;	0,0;	0,0
581,8662109375;	532,25;	0,0;	0,0
581,9279174804688;	549,25;	0,0;	0,0
581,9896850585938;	526,0;	0,0;	0,0
582,0513916015625;	549,25;	0,0;	0,0
582,113037109375;	538,25;	0,0;	0,0
582,1747436523438;	553,0;	0,0;	0,0
582,2363891601562;	536,5;	0,0;	0,0
582,2979736328125;	504,0;	0,0;	0,0
582,359619140625;	490,0;	0,0;	0,0
582,4212646484375;	528,0;	0,0;	0,0
582,4828491210938;	578,5;	0,0;	0,0
582,5444946289062;	552,25;	0,0;	0,0
582,6060180664062;	533,0;	0,0;	0,0
582,6675415039062;	539,5;	0,0;	0,0
582,7290649414062;	526,0;	0,0;	0,0
582,7905883789062;	533,25;	0,0;	0,0
582,8521118164062;	509,5;	0,0;	0,0
582,9136352539062;	588,5;	0,0;	0,0
582,9750366210938;	533,25;	0,0;	0,0
583,0365600585938;	583,5;	0,0;	0,0
583,0980224609375;	602,5;	0,0;	0,0
583,159423828125;	554,75;	0,0;	0,0
583,2208862304688;	586,75;	0,0;	0,0
583,2822875976562;	548,0;	0,0;	0,0
583,3436279296875;	535,25;	0,0;	0,0
583,405029296875;	514,75;	0,0;	0,0
583,46630859375;	539,75;	0,0;	0,0
583,5277099609375;	544,75;	0,0;	0,0
583,5890502929688;	532,0;	0,0;	0,0
583,6503295898438;	531,5;	0,0;	0,0
583,711669921875;	559,75;	0,0;	0,0
583,77294921875;	570,25;	0,0;	0,0
583,8341674804688;	576,25;	0,0;	0,0
583,8955078125;	534,5;	0,0;	0,0
583,9567260742188;	526,75;	0,0;	0,0
584,0179443359375;	556,75;	0,0;	0,0
584,0791015625;	570,5;	0,0;	0,0
584,1403198242188;	550,5;	0,0;	0,0
584,2014770507812;	527,75;	0,0;	0,0
584,2626342773438;	546,25;	0,0;	0,0
584,3237915039062;	579,75;	0,0;	0,0
584,3849487304688;	569,75;	0,0;	0,0
584,4459838867188;	539,75;	0,0;	0,0
584,5071411132812;	532,25;	0,0;	0,0
584,5682373046875;	540,5;	0,0;	0,0
584,6293334960938;	519,25;	0,0;	0,0
584,6903076171875;	578,25;	0,0;	0,0
584,7514038085938;	541,75;	0,0;	0,0
584,8123779296875;	600,0;	0,0;	0,0
584,8734130859375;	547,25;	0,0;	0,0
584,9344482421875;	526,0;	0,0;	0,0
584,9954223632812;	589,5;	0,0;	0,0
585,056396484375;	571,75;	0,0;	0,0
585,1173095703125;	580,5;	0,0;	0,0
585,1782836914062;	628,0;	0,0;	0,0
585,2391967773438;	602,5;	0,0;	0,0
585,3001098632812;	606,25;	0,0;	0,0
585,3609619140625;	607,25;	0,0;	0,0
585,4219360351562;	583,75;	0,0;	0,0
585,4827270507812;	599,5;	0,0;	0,0
585,5435791015625;	714,75;	0,0;	0,0
585,6044311523438;	768,0;	0,0;	0,0
585,6652221679688;	676,5;	0,0;	0,0
585,72607421875;	624,75;	0,0;	0,0
585,7868041992188;	685,25;	0,0;	0,0
585,8475952148438;	644,25;	0,0;	0,0
585,9083251953125;	610,5;	0,0;	0,0
585,9690551757812;	610,25;	0,0;	0,0
586,02978515625;	675,75;	0,0;	0,0
586,090576171875;	704,5;	0,0;	0,0
586,1511840820312;	671,5;	0,0;	0,0
586,2118530273438;	608,75;	0,0;	0,0
586,2725830078125;	619,0;	0,0;	0,0
586,3331909179688;	586,25;	0,0;	0,0
586,393798828125;	627,25;	0,0;	0,0
586,4544067382812;	614,25;	0,0;	0,0
586,5150146484375;	663,25;	0,0;	0,0
586,57568359375;	638,5;	0,0;	0,0
586,6361694335938;	655,0;	0,0;	0,0
586,6967163085938;	695,5;	0,0;	0,0
586,7573852539062;	677,5;	0,0;	0,0
586,8178100585938;	685,0;	0,0;	0,0
586,8783569335938;	711,25;	0,0;	0,0
586,9388427734375;	741,0;	0,0;	0,0
586,9993896484375;	714,75;	0,0;	0,0
587,0598754882812;	704,75;	0,0;	0,0
587,1202392578125;	716,5;	0,0;	0,0
587,1807250976562;	771,0;	0,0;	0,0
587,2410888671875;	772,5;	0,0;	0,0
587,301513671875;	789,75;	0,0;	0,0
587,3619384765625;	768,25;	0,0;	0,0
587,4223022460938;	799,75;	0,0;	0,0
587,482666015625;	806,0;	0,0;	0,0
587,5430297851562;	858,75;	0,0;	0,0
587,6033325195312;	828,25;	0,0;	0,0
587,6636352539062;	884,0;	0,0;	0,0
587,7239990234375;	930,25;	0,0;	0,0
587,7841796875;	910,5;	0,0;	0,0
587,8445434570312;	969,75;	0,0;	0,0
587,90478515625;	1016,0;	0,0;	0,0
587,9649658203125;	1071,5;	0,0;	0,0
588,0252075195312;	1133,0;	0,0;	0,0
588,08544921875;	1187,75;	0,0;	0,0
588,1456298828125;	1383,75;	0,0;	0,0
588,205810546875;	1570,0;	0,0;	0,0
588,2659301757812;	1716,25;	0,0;	0,0
588,3261108398438;	2071,0;	0,0;	0,0
588,3862915039062;	2417,25;	0,0;	0,0
588,4464111328125;	2957,25;	0,0;	0,0
588,5065307617188;	3762,0;	0,0;	0,0
588,5665893554688;	5275,5;	0,0;	0,0
588,6266479492188;	7977,5;	0,0;	0,0
588,6867065429688;	12665,5;	0,0;	0,0
588,7467041015625;	16383,75;	0,0;	0,0
588,8067626953125;	16383,75;	0,0;	0,0
588,8667602539062;	16383,75;	0,0;	0,0
588,9267578125;	16383,75;	0,0;	0,0
588,9867553710938;	16383,75;	0,0;	0,0
589,0467529296875;	16383,75;	0,0;	0,0
589,106689453125;	6947,0;	0,0;	0,0
589,1666259765625;	6173,0;	0,0;	0,0
589,2265625;	6861,5;	0,0;	0,0
589,2864379882812;	9581,75;	0,0;	0,0
589,3463745117188;	16106,0;	0,0;	0,0
589,4061889648438;	16383,75;	0,0;	0,0
589,466064453125;	16383,75;	0,0;	0,0
589,5259399414062;	16383,75;	0,0;	0,0
589,5857543945312;	12030,25;	0,0;	0,0
589,6455688476562;	6159,0;	0,0;	0,0
589,7053833007812;	3935,5;	0,0;	0,0
589,76513671875;	2957,75;	0,0;	0,0
589,824951171875;	2320,75;	0,0;	0,0
589,8847045898438;	2029,0;	0,0;	0,0
589,9443969726562;	1797,0;	0,0;	0,0
590,004150390625;	1537,25;	0,0;	0,0
590,0638427734375;	1432,75;	0,0;	0,0
590,12353515625;	1340,25;	0,0;	0,0
590,1832275390625;	1277,0;	0,0;	0,0
590,2428588867188;	1160,0;	0,0;	0,0
590,302490234375;	1130,0;	0,0;	0,0
590,3621215820312;	1076,75;	0,0;	0,0
590,4217529296875;	1060,5;	0,0;	0,0
590,4813842773438;	993,0;	0,0;	0,0
590,5409545898438;	983,0;	0,0;	0,0
590,6005249023438;	979,0;	0,0;	0,0
590,6600952148438;	939,75;	0,0;	0,0
590,7196044921875;	897,25;	0,0;	0,0
590,7791137695312;	933,5;	0,0;	0,0
590,8386840820312;	871,0;	0,0;	0,0
590,8981323242188;	897,5;	0,0;	0,0
590,9576416015625;	906,25;	0,0;	0,0
591,0170288085938;	870,5;	0,0;	0,0
591,0765380859375;	895,25;	0,0;	0,0
591,135986328125;	921,0;	0,0;	0,0
591,1953735351562;	895,25;	0,0;	0,0
591,2547607421875;	972,0;	0,0;	0,0
591,314208984375;	909,25;	0,0;	0,0
591,37353515625;	823,0;	0,0;	0,0
591,4329223632812;	844,5;	0,0;	0,0
591,4922485351562;	785,5;	0,0;	0,0
591,551513671875;	782,0;	0,0;	0,0
591,6109008789062;	775,5;	0,0;	0,0
591,670166015625;	742,0;	0,0;	0,0
591,7294921875;	732,25;	0,0;	0,0
591,7887573242188;	777,75;	0,0;	0,0
591,847900390625;	761,0;	0,0;	0,0
591,9071655273438;	717,25;	0,0;	0,0
591,9664306640625;	783,0;	0,0;	0,0
592,025634765625;	771,5;	0,0;	0,0
592,0847778320312;	753,25;	0,0;	0,0
592,1439819335938;	720,0;	0,0;	0,0
592,203125;	681,0;	0,0;	0,0
592,2622680664062;	704,0;	0,0;	0,0
592,3214111328125;	668,25;	0,0;	0,0
592,3804931640625;	712,0;	0,0;	0,0
592,4396362304688;	723,5;	0,0;	0,0
592,4987182617188;	690,0;	0,0;	0,0
592,5577392578125;	714,5;	0,0;	0,0
592,6167602539062;	744,5;	0,0;	0,0
592,6758422851562;	743,5;	0,0;	0,0
592,73486328125;	687,25;	0,0;	0,0
592,7938842773438;	753,0;	0,0;	0,0
592,8528442382812;	807,75;	0,0;	0,0
592,9118041992188;	789,75;	0,0;	0,0
592,9707641601562;	747,25;	0,0;	0,0
593,0297241210938;	669,5;	0,0;	0,0
593,0886840820312;	663,5;	0,0;	0,0
593,1475219726562;	655,75;	0,0;	0,0
593,2064819335938;	683,75;	0,0;	0,0
593,2652587890625;	687,0;	0,0;	0,0
593,32421875;	738,25;	0,0;	0,0
593,383056640625;	702,75;	0,0;	0,0
593,44189453125;	683,75;	0,0;	0,0
593,5006713867188;	675,25;	0,0;	0,0
593,5595703125;	629,5;	0,0;	0,0
593,6182861328125;	632,5;	0,0;	0,0
593,6770629882812;	616,75;	0,0;	0,0
593,73583984375;	634,25;	0,0;	0,0
593,7945556640625;	640,5;	0,0;	0,0
593,853271484375;	608,25;	0,0;	0,0
593,9119262695312;	661,75;	0,0;	0,0
593,970703125;	630,25;	0,0;	0,0
594,0293579101562;	658,0;	0,0;	0,0
594,0880126953125;	653,25;	0,0;	0,0
594,146728515625;	585,5;	0,0;	0,0
594,205322265625;	615,25;	0,0;	0,0
594,263916015625;	616,5;	0,0;	0,0
594,3225708007812;	604,5;	0,0;	0,0
594,3811645507812;	633,5;	0,0;	0,0
594,439697265625;	618,25;	0,0;	0,0
594,498291015625;	619,5;	0,0;	0,0
594,5567626953125;	573,25;	0,0;	0,0
594,6153564453125;	582,25;	0,0;	0,0
594,673828125;	571,75;	0,0;	0,0
594,7322998046875;	602,0;	0,0;	0,0
594,790771484375;	597,75;	0,0;	0,0
594,8492431640625;	578,5;	0,0;	0,0
594,90771484375;	612,5;	0,0;	0,0
594,9661254882812;	597,25;	0,0;	0,0
595,0245971679688;	630,0;	0,0;	0,0
595,0829467773438;	600,75;	0,0;	0,0
595,141357421875;	629,25;	0,0;	0,0
595,19970703125;	580,25;	0,0;	0,0
595,2581176757812;	565,0;	0,0;	0,0
595,3164672851562;	556,5;	0,0;	0,0
595,374755859375;	596,25;	0,0;	0,0
595,4330444335938;	592,0;	0,0;	0,0
595,4913330078125;	567,5;	0,0;	0,0
595,5496215820312;	643,0;	0,0;	0,0
595,60791015625;	549,75;	0,0;	0,0
595,6661987304688;	571,0;	0,0;	0,0
595,724365234375;	581,0;	0,0;	0,0
595,7825927734375;	577,75;	0,0;	0,0
595,8408203125;	578,0;	0,0;	0,0
595,8989868164062;	567,75;	0,0;	0,0
595,9572143554688;	540,5;	0,0;	0,0
596,0153198242188;	598,5;	0,0;	0,0
596,073486328125;	569,25;	0,0;	0,0
596,1315307617188;	565,5;	0,0;	0,0
596,1896362304688;	571,25;	0,0;	0,0
596,247802734375;	591,25;	0,0;	0,0
596,3058471679688;	554,25;	0,0;	0,0
596,3638916015625;	577,5;	0,0;	0,0
596,4219970703125;	568,75;	0,0;	0,0
596,47998046875;	555,5;	0,0;	0,0
596,5380249023438;	575,0;	0,0;	0,0
596,5960083007812;	601,0;	0,0;	0,0
596,6539916992188;	539,75;	0,0;	0,0
596,7119750976562;	542,75;	0,0;	0,0
596,7698364257812;	596,75;	0,0;	0,0
596,8278198242188;	521,5;	0,0;	0,0
596,8858032226562;	566,0;	0,0;	0,0
596,9436645507812;	571,25;	0,0;	0,0
597,0015869140625;	578,75;	0,0;	0,0
597,0595092773438;	537,75;	0,0;	0,0
597,1173095703125;	586,75;	0,0;	0,0
597,1751098632812;	565,0;	0,0;	0,0
597,2329711914062;	534,5;	0,0;	0,0
597,290771484375;	578,25;	0,0;	0,0
597,3486328125;	613,25;	0,0;	0,0
597,4063110351562;	591,75;	0,0;	0,0
597,4641723632812;	641,0;	0,0;	0,0
597,5219116210938;	590,75;	0,0;	0,0
597,57958984375;	592,0;	0,0;	0,0
597,6373291015625;	611,0;	0,0;	0,0
597,695068359375;	538,25;	0,0;	0,0
597,7527465820312;	565,0;	0,0;	0,0
597,8104248046875;	580,25;	0,0;	0,0
597,8681030273438;	568,0;	0,0;	0,0
597,9257202148438;	573,5;	0,0;	0,0
597,9833374023438;	580,0;	0,0;	0,0
598,0408935546875;	568,0;	0,0;	0,0
598,0985107421875;	590,5;	0,0;	0,0
598,1561279296875;	642,0;	0,0;	0,0
598,2136840820312;	616,25;	0,0;	0,0
598,271240234375;	670,5;	0,0;	0,0
598,3287353515625;	649,0;	0,0;	0,0
598,3862915039062;	643,25;	0,0;	0,0
598,44384765625;	576,0;	0,0;	0,0
598,5012817382812;	591,5;	0,0;	0,0
598,5587158203125;	585,25;	0,0;	0,0
598,6162109375;	589,5;	0,0;	0,0
598,673583984375;	580,5;	0,0;	0,0
598,7310791015625;	556,5;	0,0;	0,0
598,7885131835938;	542,25;	0,0;	0,0
598,8458251953125;	543,0;	0,0;	0,0
598,9032592773438;	532,75;	0,0;	0,0
598,9605712890625;	546,25;	0,0;	0,0
599,0179443359375;	556,75;	0,0;	0,0
599,0753173828125;	504,5;	0,0;	0,0
599,132568359375;	521,5;	0,0;	0,0
599,1898803710938;	553,25;	0,0;	0,0
599,2472534179688;	530,5;	0,0;	0,0
599,3043823242188;	514,75;	0,0;	0,0
599,3616943359375;	534,75;	0,0;	0,0
599,4189453125;	527,75;	0,0;	0,0
599,4761352539062;	546,5;	0,0;	0,0
599,5333251953125;	588,75;	0,0;	0,0
599,5905151367188;	543,75;	0,0;	0,0
599,647705078125;	550,75;	0,0;	0,0
599,7049560546875;	524,25;	0,0;	0,0
599,7620239257812;	515,25;	0,0;	0,0
599,8191528320312;	527,75;	0,0;	0,0
599,8762817382812;	523,25;	0,0;	0,0
599,933349609375;	516,75;	0,0;	0,0
599,9904174804688;	520,0;	0,0;	0,0
600,0475463867188;	512,0;	0,0;	0,0
600,1045532226562;	533,25;	0,0;	0,0
600,16162109375;	582,5;	0,0;	0,0
600,2186279296875;	536,75;	0,0;	0,0
600,2755737304688;	553,0;	0,0;	0,0
600,3326416015625;	564,5;	0,0;	0,0
600,3895874023438;	522,0;	0,0;	0,0
600,446533203125;	513,25;	0,0;	0,0
600,5034790039062;	527,75;	0,0;	0,0
600,5603637695312;	548,5;	0,0;	0,0
600,6172485351562;	561,25;	0,0;	0,0
600,6742553710938;	611,5;	0,0;	0,0
600,7310791015625;	619,5;	0,0;	0,0
600,7879028320312;	550,75;	0,0;	0,0
600,8447265625;	520,75;	0,0;	0,0
600,9015502929688;	527,5;	0,0;	0,0
600,9584350585938;	484,25;	0,0;	0,0
601,0151977539062;	505,25;	0,0;	0,0
601,0719604492188;	518,75;	0,0;	0,0
601,1287231445312;	552,75;	0,0;	0,0
601,185546875;	529,25;	0,0;	0,0
601,2422485351562;	519,0;	0,0;	0,0
601,2989501953125;	542,5;	0,0;	0,0
601,355712890625;	507,25;	0,0;	0,0
601,412353515625;	530,25;	0,0;	0,0
601,468994140625;	567,0;	0,0;	0,0
601,5256958007812;	556,5;	0,0;	0,0
601,5823364257812;	516,75;	0,0;	0,0
601,6389770507812;	544,0;	0,0;	0,0
601,695556640625;	546,5;	0,0;	0,0
601,7521362304688;	587,5;	0,0;	0,0
601,8087158203125;	587,25;	0,0;	0,0
601,8652954101562;	631,75;	0,0;	0,0
601,9218139648438;	609,5;	0,0;	0,0
601,9783935546875;	576,75;	0,0;	0,0
602,034912109375;	561,25;	0,0;	0,0
602,0913696289062;	591,5;	0,0;	0,0
602,1478271484375;	583,75;	0,0;	0,0
602,204345703125;	707,25;	0,0;	0,0
602,2608032226562;	714,25;	0,0;	0,0
602,3171997070312;	631,5;	0,0;	0,0
602,3736572265625;	571,25;	0,0;	0,0
602,4300537109375;	541,75;	0,0;	0,0
602,4864501953125;	506,0;	0,0;	0,0
602,5427856445312;	569,5;	0,0;	0,0
602,5991821289062;	529,75;	0,0;	0,0
602,655517578125;	509,5;	0,0;	0,0
602,7117919921875;	499,25;	0,0;	0,0
602,7681274414062;	497,0;	0,0;	0,0
602,824462890625;	492,25;	0,0;	0,0
602,8806762695312;	486,75;	0,0;	0,0
602,93701171875;	472,75;	0,0;	0,0
602,9932250976562;	518,5;	0,0;	0,0
603,0494384765625;	522,5;	0,0;	0,0
603,105712890625;	491,5;	0,0;	0,0
603,161865234375;	508,75;	0,0;	0,0
603,2180786132812;	510,25;	0,0;	0,0
603,2742309570312;	512,25;	0,0;	0,0
603,3303833007812;	488,75;	0,0;	0,0
603,3865356445312;	510,75;	0,0;	0,0
603,4426879882812;	459,75;	0,0;	0,0
603,498779296875;	470,0;	0,0;	0,0
603,5548706054688;	473,5;	0,0;	0,0
603,6109008789062;	463,75;	0,0;	0,0
603,6669311523438;	484,25;	0,0;	0,0
603,7230224609375;	507,25;	0,0;	0,0
603,7789916992188;	504,0;	0,0;	0,0
603,8350219726562;	493,75;	0,0;	0,0
603,8909912109375;	474,25;	0,0;	0,0
603,947021484375;	499,0;	0,0;	0,0
604,0030517578125;	512,0;	0,0;	0,0
604,0589599609375;	515,0;	0,0;	0,0
604,1148681640625;	509,25;	0,0;	0,0
604,1707763671875;	475,0;	0,0;	0,0
604,2266845703125;	492,0;	0,0;	0,0
604,2825317382812;	481,5;	0,0;	0,0
604,3385009765625;	471,5;	0,0;	0,0
604,394287109375;	486,5;	0,0;	0,0
604,4501342773438;	454,0;	0,0;	0,0
604,5059204101562;	477,0;	0,0;	0,0
604,5617065429688;	474,75;	0,0;	0,0
604,6175537109375;	503,25;	0,0;	0,0
604,67333984375;	448,25;	0,0;	0,0
604,7290649414062;	462,0;	0,0;	0,0
604,7847900390625;	491,5;	0,0;	0,0
604,8405151367188;	437,75;	0,0;	0,0
604,896240234375;	481,5;	0,0;	0,0
604,9519653320312;	477,0;	0,0;	0,0
605,007568359375;	455,0;	0,0;	0,0
605,0632934570312;	456,25;	0,0;	0,0
605,118896484375;	475,75;	0,0;	0,0
605,174560546875;	445,75;	0,0;	0,0
605,2301635742188;	508,0;	0,0;	0,0
605,2857666015625;	495,5;	0,0;	0,0
605,34130859375;	499,5;	0,0;	0,0
605,3969116210938;	499,75;	0,0;	0,0
605,4524536132812;	522,75;	0,0;	0,0
605,5079956054688;	495,0;	0,0;	0,0
605,5635375976562;	519,25;	0,0;	0,0
605,6190185546875;	483,25;	0,0;	0,0
605,674560546875;	488,25;	0,0;	0,0
605,7299194335938;	477,25;	0,0;	0,0
605,7854614257812;	440,5;	0,0;	0,0
605,8409423828125;	494,5;	0,0;	0,0
605,896240234375;	494,5;	0,0;	0,0
605,9517211914062;	446,0;	0,0;	0,0
606,0070190429688;	461,0;	0,0;	0,0
606,0625;	485,25;	0,0;	0,0
606,1178588867188;	476,25;	0,0;	0,0
606,1732177734375;	493,25;	0,0;	0,0
606,228515625;	482,0;	0,0;	0,0
606,2838745117188;	486,0;	0,0;	0,0
606,339111328125;	568,0;	0,0;	0,0
606,3944091796875;	652,0;	0,0;	0,0
606,44970703125;	625,5;	0,0;	0,0
606,5048828125;	551,5;	0,0;	0,0
606,5601806640625;	475,5;	0,0;	0,0
606,6153564453125;	481,0;	0,0;	0,0
606,6705322265625;	463,5;	0,0;	0,0
606,7257690429688;	459,25;	0,0;	0,0
606,781005859375;	461,25;	0,0;	0,0
606,8360595703125;	456,25;	0,0;	0,0
606,8912353515625;	442,5;	0,0;	0,0
606,9463500976562;	441,75;	0,0;	0,0
607,0014038085938;	462,0;	0,0;	0,0
607,0565795898438;	427,0;	0,0;	0,0
607,1116333007812;	441,0;	0,0;	0,0
607,1666870117188;	439,25;	0,0;	0,0
607,2216796875;	457,25;	0,0;	0,0
607,2767333984375;	453,0;	0,0;	0,0
607,331787109375;	431,5;	0,0;	0,0
607,38671875;	475,5;	0,0;	0,0
607,4417114257812;	475,5;	0,0;	0,0
607,4967041015625;	469,5;	0,0;	0,0
607,5515747070312;	446,5;	0,0;	0,0
607,6065673828125;	487,75;	0,0;	0,0
607,6615600585938;	533,25;	0,0;	0,0
607,7163696289062;	484,25;	0,0;	0,0
607,771240234375;	504,25;	0,0;	0,0
607,8261108398438;	483,25;	0,0;	0,0
607,8809814453125;	501,75;	0,0;	0,0
607,935791015625;	445,0;	0,0;	0,0
607,9906005859375;	468,5;	0,0;	0,0
608,0454711914062;	459,0;	0,0;	0,0
608,1001586914062;	441,0;	0,0;	0,0
608,1549682617188;	441,25;	0,0;	0,0
608,2097778320312;	485,5;	0,0;	0,0
608,2645263671875;	442,25;	0,0;	0,0
608,3191528320312;	478,0;	0,0;	0,0
608,3739013671875;	454,5;	0,0;	0,0
608,4285888671875;	453,5;	0,0;	0,0
608,4832153320312;	440,75;	0,0;	0,0
608,5379638671875;	481,0;	0,0;	0,0
608,5925903320312;	461,0;	0,0;	0,0
608,647216796875;	499,25;	0,0;	0,0
608,7017822265625;	460,75;	0,0;	0,0
608,7564086914062;	487,75;	0,0;	0,0
608,8109741210938;	477,5;	0,0;	0,0
608,8656005859375;	468,0;	0,0;	0,0
608,9201049804688;	458,0;	0,0;	0,0
608,974609375;	465,25;	0,0;	0,0
609,0291137695312;	480,75;	0,0;	0,0
609,0836181640625;	465,25;	0,0;	0,0
609,1381225585938;	447,5;	0,0;	0,0
609,1925659179688;	467,0;	0,0;	0,0
609,2470092773438;	460,0;	0,0;	0,0
609,3014526367188;	479,75;	0,0;	0,0
609,3558349609375;	501,0;	0,0;	0,0
609,4102783203125;	524,25;	0,0;	0,0
609,4646606445312;	486,5;	0,0;	0,0
609,51904296875;	540,5;	0,0;	0,0
609,5734252929688;	488,75;	0,0;	0,0
609,627685546875;	537,0;	0,0;	0,0
609,6820678710938;	475,0;	0,0;	0,0
609,7363891601562;	466,25;	0,0;	0,0
609,7906494140625;	492,25;	0,0;	0,0
609,844970703125;	497,25;	0,0;	0,0
609,899169921875;	500,0;	0,0;	0,0
609,953369140625;	493,0;	0,0;	0,0
610,0076293945312;	589,0;	0,0;	0,0
610,0618286132812;	746,0;	0,0;	0,0
610,1160888671875;	885,0;	0,0;	0,0
610,170166015625;	1008,0;	0,0;	0,0
610,224365234375;	925,0;	0,0;	0,0
610,2785034179688;	725,5;	0,0;	0,0
610,3327026367188;	569,0;	0,0;	0,0
610,3867797851562;	486,0;	0,0;	0,0
610,4408569335938;	429,5;	0,0;	0,0
610,4949340820312;	520,5;	0,0;	0,0
610,549072265625;	485,75;	0,0;	0,0
610,6030883789062;	487,5;	0,0;	0,0
610,6571044921875;	474,5;	0,0;	0,0
610,7111206054688;	482,25;	0,0;	0,0
610,7650756835938;	486,25;	0,0;	0,0
610,819091796875;	487,25;	0,0;	0,0
610,8731079101562;	504,25;	0,0;	0,0
610,9270629882812;	519,25;	0,0;	0,0
610,98095703125;	469,5;	0,0;	0,0
611,034912109375;	456,5;	0,0;	0,0
611,0887451171875;	476,5;	0,0;	0,0
611,1427001953125;	501,5;	0,0;	0,0
611,1965942382812;	478,5;	0,0;	0,0
611,2503662109375;	460,75;	0,0;	0,0
611,30419921875;	472,75;	0,0;	0,0
611,3580322265625;	478,75;	0,0;	0,0
611,411865234375;	490,75;	0,0;	0,0
611,4656982421875;	455,25;	0,0;	0,0
611,5194702148438;	487,75;	0,0;	0,0
611,5731811523438;	494,75;	0,0;	0,0
611,626953125;	491,75;	0,0;	0,0
611,6806640625;	502,25;	0,0;	0,0
611,734375;	475,0;	0,0;	0,0
611,7880859375;	492,75;	0,0;	0,0
611,8417358398438;	504,75;	0,0;	0,0
611,8953857421875;	515,25;	0,0;	0,0
611,9490356445312;	556,0;	0,0;	0,0
612,002685546875;	715,0;	0,0;	0,0
612,0562744140625;	850,75;	0,0;	0,0
612,1099243164062;	829,75;	0,0;	0,0
612,1635131835938;	684,0;	0,0;	0,0
612,2171020507812;	534,0;	0,0;	0,0
612,2705688476562;	507,0;	0,0;	0,0
612,3241577148438;	463,75;	0,0;	0,0
612,3776245117188;	489,75;	0,0;	0,0
612,4310913085938;	449,5;	0,0;	0,0
612,484619140625;	494,5;	0,0;	0,0
612,5380859375;	482,5;	0,0;	0,0
612,591552734375;	476,75;	0,0;	0,0
612,64501953125;	516,25;	0,0;	0,0
612,6983642578125;	481,75;	0,0;	0,0
612,7518310546875;	485,75;	0,0;	0,0
612,80517578125;	489,25;	0,0;	0,0
612,8585205078125;	463,25;	0,0;	0,0
612,9119262695312;	465,0;	0,0;	0,0
612,9652709960938;	475,75;	0,0;	0,0
613,0185546875;	476,25;	0,0;	0,0
613,0718383789062;	449,5;	0,0;	0,0
613,1251220703125;	449,0;	0,0;	0,0
613,1784057617188;	487,0;	0,0;	0,0
613,2317504882812;	507,25;	0,0;	0,0
613,2849731445312;	491,0;	0,0;	0,0
613,338134765625;	490,75;	0,0;	0,0
613,391357421875;	620,0;	0,0;	0,0
613,4445190429688;	657,0;	0,0;	0,0
613,4977416992188;	868,0;	0,0;	0,0
613,5509033203125;	926,0;	0,0;	0,0
613,6040649414062;	843,25;	0,0;	0,0
613,6572265625;	738,5;	0,0;	0,0
613,7102661132812;	583,5;	0,0;	0,0
613,7633666992188;	475,5;	0,0;	0,0
613,8164672851562;	506,0;	0,0;	0,0
613,8695068359375;	500,5;	0,0;	0,0
613,922607421875;	549,75;	0,0;	0,0
613,9755859375;	592,75;	0,0;	0,0
614,028564453125;	579,25;	0,0;	0,0
614,0816040039062;	596,0;	0,0;	0,0
614,1346435546875;	519,25;	0,0;	0,0
614,1875610351562;	512,75;	0,0;	0,0
614,2405395507812;	497,25;	0,0;	0,0
614,2933959960938;	504,0;	0,0;	0,0
614,3463745117188;	472,5;	0,0;	0,0
614,3992919921875;	470,0;	0,0;	0,0
614,4521484375;	462,75;	0,0;	0,0
614,5050048828125;	484,0;	0,0;	0,0
614,5578002929688;	475,5;	0,0;	0,0
614,6106567382812;	529,75;	0,0;	0,0
614,6635131835938;	496,0;	0,0;	0,0
614,7163696289062;	480,75;	0,0;	0,0
614,7691040039062;	459,5;	0,0;	0,0
614,8218994140625;	510,25;	0,0;	0,0
614,8746337890625;	481,25;	0,0;	0,0
614,9273681640625;	499,0;	0,0;	0,0
614,9801025390625;	503,25;	0,0;	0,0
615,0327758789062;	508,75;	0,0;	0,0
615,0855102539062;	480,5;	0,0;	0,0
615,1381225585938;	495,0;	0,0;	0,0
615,1908569335938;	536,0;	0,0;	0,0
615,2434692382812;	583,0;	0,0;	0,0
615,2960815429688;	585,25;	0,0;	0,0
615,3486938476562;	568,25;	0,0;	0,0
615,4012451171875;	508,5;	0,0;	0,0
615,453857421875;	491,5;	0,0;	0,0
615,5064697265625;	535,5;	0,0;	0,0
615,5589599609375;	526,5;	0,0;	0,0
615,6114501953125;	562,0;	0,0;	0,0
615,6640014648438;	559,25;	0,0;	0,0
615,7164306640625;	534,25;	0,0;	0,0
615,7689819335938;	576,75;	0,0;	0,0
615,8214111328125;	580,75;	0,0;	0,0
615,8738403320312;	666,5;	0,0;	0,0
615,9263305664062;	840,5;	0,0;	0,0
615,9786987304688;	945,5;	0,0;	0,0
616,0310668945312;	1161,25;	0,0;	0,0
616,08349609375;	1175,25;	0,0;	0,0
616,1358642578125;	968,75;	0,0;	0,0
616,1881713867188;	676,25;	0,0;	0,0
616,2405395507812;	567,25;	0,0;	0,0
616,2928466796875;	542,5;	0,0;	0,0
616,3450927734375;	534,0;	0,0;	0,0
616,3974609375;	521,25;	0,0;	0,0
616,4496459960938;	528,5;	0,0;	0,0
616,501953125;	539,5;	0,0;	0,0
616,5540771484375;	557,25;	0,0;	0,0
616,6063842773438;	527,0;	0,0;	0,0
616,6585693359375;	547,0;	0,0;	0,0
616,7107543945312;	574,75;	0,0;	0,0
616,7628784179688;	618,25;	0,0;	0,0
616,8150634765625;	610,0;	0,0;	0,0
616,8671264648438;	621,0;	0,0;	0,0
616,9193115234375;	543,0;	0,0;	0,0
616,971435546875;	535,25;	0,0;	0,0
617,0234985351562;	507,0;	0,0;	0,0
617,0756225585938;	503,5;	0,0;	0,0
617,1275634765625;	529,5;	0,0;	0,0
617,1796875;	545,0;	0,0;	0,0
617,231689453125;	558,0;	0,0;	0,0
617,28369140625;	550,5;	0,0;	0,0
617,3356323242188;	517,75;	0,0;	0,0
617,3876953125;	519,75;	0,0;	0,0
617,4395751953125;	494,5;	0,0;	0,0
617,4915161132812;	485,5;	0,0;	0,0
617,54345703125;	530,75;	0,0;	0,0
617,5953369140625;	478,75;	0,0;	0,0
617,6472778320312;	506,25;	0,0;	0,0
617,6990966796875;	491,75;	0,0;	0,0
617,7509765625;	519,25;	0,0;	0,0
617,8027954101562;	495,25;	0,0;	0,0
617,8546142578125;	582,25;	0,0;	0,0
617,906494140625;	545,5;	0,0;	0,0
617,9581909179688;	537,75;	0,0;	0,0
618,010009765625;	536,0;	0,0;	0,0
618,061767578125;	506,5;	0,0;	0,0
618,113525390625;	512,5;	0,0;	0,0
618,1652221679688;	514,75;	0,0;	0,0
618,2169799804688;	524,25;	0,0;	0,0
618,2686157226562;	535,0;	0,0;	0,0
618,3203125;	482,75;	0,0;	0,0
618,3720092773438;	517,25;	0,0;	0,0
618,423583984375;	519,75;	0,0;	0,0
618,4752197265625;	515,0;	0,0;	0,0
618,5267944335938;	500,0;	0,0;	0,0
618,5784301757812;	535,75;	0,0;	0,0
618,6300048828125;	543,5;	0,0;	0,0
618,681640625;	530,75;	0,0;	0,0
618,7330932617188;	582,5;	0,0;	0,0
618,7846069335938;	533,0;	0,0;	0,0
618,8361206054688;	546,75;	0,0;	0,0
618,8876342773438;	572,25;	0,0;	0,0
618,9391479492188;	660,75;	0,0;	0,0
618,9905395507812;	800,25;	0,0;	0,0
619,0419921875;	739,0;	0,0;	0,0
619,0933837890625;	600,25;	0,0;	0,0
619,1448364257812;	542,5;	0,0;	0,0
619,1962890625;	539,75;	0,0;	0,0
619,2476196289062;	501,5;	0,0;	0,0
619,2990112304688;	490,0;	0,0;	0,0
619,3504028320312;	515,0;	0,0;	0,0
619,4016723632812;	479,25;	0,0;	0,0
619,4530029296875;	538,75;	0,0;	0,0
619,5043334960938;	492,75;	0,0;	0,0
619,5555419921875;	484,0;	0,0;	0,0
619,6068115234375;	505,0;	0,0;	0,0
619,6580810546875;	505,5;	0,0;	0,0
619,7092895507812;	522,75;	0,0;	0,0
619,7605590820312;	539,25;	0,0;	0,0
619,8117065429688;	512,0;	0,0;	0,0
619,8628540039062;	547,5;	0,0;	0,0
619,9140014648438;	520,25;	0,0;	0,0
619,9652099609375;	496,75;	0,0;	0,0
620,0162963867188;	515,0;	0,0;	0,0
620,0675048828125;	530,0;	0,0;	0,0
620,1185913085938;	480,25;	0,0;	0,0
620,169677734375;	529,5;	0,0;	0,0
620,2206420898438;	497,25;	0,0;	0,0
620,2717895507812;	511,0;	0,0;	0,0
620,3228149414062;	500,0;	0,0;	0,0
620,373779296875;	527,0;	0,0;	0,0
620,4248046875;	543,25;	0,0;	0,0
620,4757690429688;	495,0;	0,0;	0,0
620,5267333984375;	492,0;	0,0;	0,0
620,5777587890625;	487,0;	0,0;	0,0
620,628662109375;	528,0;	0,0;	0,0
620,6795654296875;	499,5;	0,0;	0,0
620,73046875;	479,0;	0,0;	0,0
620,7813110351562;	477,5;	0,0;	0,0
620,8322143554688;	492,0;	0,0;	0,0
620,883056640625;	504,5;	0,0;	0,0
620,933837890625;	513,25;	0,0;	0,0
620,9846801757812;	508,5;	0,0;	0,0
621,0354614257812;	485,75;	0,0;	0,0
621,0863037109375;	518,0;	0,0;	0,0
621,1370849609375;	490,25;	0,0;	0,0
621,1878662109375;	517,5;	0,0;	0,0
621,2385864257812;	525,25;	0,0;	0,0
621,2892456054688;	536,25;	0,0;	0,0
621,3399047851562;	525,5;	0,0;	0,0
621,3906860351562;	525,5;	0,0;	0,0
621,4413452148438;	476,25;	0,0;	0,0
621,491943359375;	506,5;	0,0;	0,0
621,5426025390625;	466,5;	0,0;	0,0
621,5931396484375;	479,75;	0,0;	0,0
621,643798828125;	503,75;	0,0;	0,0
621,6943969726562;	539,5;	0,0;	0,0
621,7449951171875;	556,75;	0,0;	0,0
621,7955322265625;	551,25;	0,0;	0,0
621,8460693359375;	524,75;	0,0;	0,0
621,8965454101562;	490,25;	0,0;	0,0
621,9470825195312;	540,25;	0,0;	0,0
621,9976196289062;	522,25;	0,0;	0,0
622,0480346679688;	547,0;	0,0;	0,0
622,0985107421875;	525,25;	0,0;	0,0
622,1488647460938;	509,5;	0,0;	0,0
622,1993408203125;	518,5;	0,0;	0,0
622,249755859375;	511,0;	0,0;	0,0
622,3001708984375;	529,5;	0,0;	0,0
622,3505249023438;	522,5;	0,0;	0,0
622,4008178710938;	529,75;	0,0;	0,0
622,451171875;	541,75;	0,0;	0,0
622,5015258789062;	525,0;	0,0;	0,0
622,5518798828125;	538,75;	0,0;	0,0
622,6021118164062;	517,75;	0,0;	0,0
622,6524047851562;	494,75;	0,0;	0,0
622,7025756835938;	565,25;	0,0;	0,0
622,7528686523438;	570,5;	0,0;	0,0
622,8031616210938;	651,75;	0,0;	0,0
622,853271484375;	679,75;	0,0;	0,0
622,9034423828125;	905,25;	0,0;	0,0
622,95361328125;	862,5;	0,0;	0,0
623,0037841796875;	667,25;	0,0;	0,0
623,053955078125;	576,75;	0,0;	0,0
623,1040649414062;	548,25;	0,0;	0,0
623,1541137695312;	568,5;	0,0;	0,0
623,2042236328125;	570,75;	0,0;	0,0
623,2542724609375;	520,0;	0,0;	0,0
623,3043823242188;	546,25;	0,0;	0,0
623,3544311523438;	572,5;	0,0;	0,0
623,4044189453125;	505,75;	0,0;	0,0
623,4544677734375;	488,75;	0,0;	0,0
623,50439453125;	502,0;	0,0;	0,0
623,5543823242188;	513,5;	0,0;	0,0
623,6043701171875;	502,25;	0,0;	0,0
623,6543579101562;	502,75;	0,0;	0,0
623,7042236328125;	494,75;	0,0;	0,0
623,754150390625;	542,0;	0,0;	0,0
623,803955078125;	527,25;	0,0;	0,0
623,8538818359375;	482,5;	0,0;	0,0
623,9037475585938;	530,75;	0,0;	0,0
623,9535522460938;	534,25;	0,0;	0,0
624,0033569335938;	528,0;	0,0;	0,0
624,0531616210938;	508,5;	0,0;	0,0
624,1029663085938;	507,25;	0,0;	0,0
624,1527709960938;	507,25;	0,0;	0,0
624,2025756835938;	510,0;	0,0;	0,0
624,2522583007812;	517,0;	0,0;	0,0
624,3019409179688;	547,75;	0,0;	0,0
624,3516235351562;	547,5;	0,0;	0,0
624,4013671875;	573,0;	0,0;	0,0
624,4510498046875;	613,5;	0,0;	0,0
624,5006713867188;	648,0;	0,0;	0,0
624,5503540039062;	594,25;	0,0;	0,0
624,599853515625;	520,25;	0,0;	0,0
624,6495361328125;	530,5;	0,0;	0,0
624,6991577148438;	536,25;	0,0;	0,0
624,7486572265625;	504,0;	0,0;	0,0
624,7982177734375;	492,5;	0,0;	0,0
624,8477172851562;	502,5;	0,0;	0,0
624,8972778320312;	547,25;	0,0;	0,0
624,94677734375;	524,5;	0,0;	0,0
624,9962768554688;	582,0;	0,0;	0,0
625,0457763671875;	637,75;	0,0;	0,0
625,09521484375;	722,25;	0,0;	0,0
625,1446533203125;	677,5;	0,0;	0,0
625,194091796875;	595,75;	0,0;	0,0
625,2434692382812;	510,5;	0,0;	0,0
625,2928466796875;	550,25;	0,0;	0,0
625,3422241210938;	517,5;	0,0;	0,0
625,3914794921875;	513,25;	0,0;	0,0
625,44091796875;	521,25;	0,0;	0,0
625,490234375;	521,75;	0,0;	0,0
625,53955078125;	523,5;	0,0;	0,0
625,5888061523438;	526,25;	0,0;	0,0
625,6380615234375;	494,5;	0,0;	0,0
625,687255859375;	517,0;	0,0;	0,0
625,736572265625;	510,25;	0,0;	0,0
625,7858276367188;	0,0;	0,0;	0,0
