0.0	1.5
Integration time [ms]:	1.05
Averaging Nr. [scans]:1
Smoothing Nr. [pixels]:0
Data measured with spectrometer [name]:b'1703273U8'
Wave	;Sample	;Dark	;Reference	;Scope	
[nm]	;[counts]	;[counts]	;[counts]	
 
250,49510192871094;	165,75;	0,0;	0,0
250,5340576171875;	139,0;	0,0;	0,0
250,572998046875;	156,25;	0,0;	0,0
250,61192321777344;	157,25;	0,0;	0,0
250,65086364746094;	152,75;	0,0;	0,0
250,68978881835938;	171,75;	0,0;	0,0
250,7287139892578;	155,5;	0,0;	0,0
250,7676239013672;	162,0;	0,0;	0,0
250,80653381347656;	177,0;	0,0;	0,0
250,8454132080078;	157,75;	0,0;	0,0
250,8843231201172;	165,25;	0,0;	0,0
250,92320251464844;	161,25;	0,0;	0,0
250,96209716796875;	173,0;	0,0;	0,0
251,00096130371094;	187,0;	0,0;	0,0
251,0398406982422;	306,25;	0,0;	0,0
251,0786895751953;	269,0;	0,0;	0,0
251,1175537109375;	353,0;	0,0;	0,0
251,15640258789062;	425,5;	0,0;	0,0
251,19525146484375;	258,0;	0,0;	0,0
251,2340850830078;	215,0;	0,0;	0,0
251,2729034423828;	183,5;	0,0;	0,0
251,31173706054688;	211,0;	0,0;	0,0
251,35055541992188;	197,75;	0,0;	0,0
251,38937377929688;	328,0;	0,0;	0,0
251,4281768798828;	299,0;	0,0;	0,0
251,46697998046875;	252,25;	0,0;	0,0
251,50576782226562;	186,0;	0,0;	0,0
251,5445556640625;	256,25;	0,0;	0,0
251,58334350585938;	244,0;	0,0;	0,0
251,6221160888672;	228,0;	0,0;	0,0
251,660888671875;	315,0;	0,0;	0,0
251,6996612548828;	341,5;	0,0;	0,0
251,7384033203125;	452,5;	0,0;	0,0
251,7771453857422;	547,5;	0,0;	0,0
251,81590270996094;	359,0;	0,0;	0,0
251,85462951660156;	431,5;	0,0;	0,0
251,8933563232422;	371,75;	0,0;	0,0
251,93206787109375;	276,75;	0,0;	0,0
251,97079467773438;	224,75;	0,0;	0,0
252,00950622558594;	257,0;	0,0;	0,0
252,0482177734375;	354,75;	0,0;	0,0
252,0869140625;	445,75;	0,0;	0,0
252,1256103515625;	430,75;	0,0;	0,0
252,16429138183594;	520,75;	0,0;	0,0
252,20297241210938;	707,0;	0,0;	0,0
252,2416534423828;	1190,25;	0,0;	0,0
252,2803192138672;	745,75;	0,0;	0,0
252,31898498535156;	519,25;	0,0;	0,0
252,35765075683594;	510,75;	0,0;	0,0
252,3962860107422;	557,5;	0,0;	0,0
252,4349365234375;	539,5;	0,0;	0,0
252,4735565185547;	874,75;	0,0;	0,0
252,51219177246094;	1039,5;	0,0;	0,0
252,5508270263672;	704,25;	0,0;	0,0
252,58944702148438;	836,25;	0,0;	0,0
252,62803649902344;	600,25;	0,0;	0,0
252,66665649414062;	711,25;	0,0;	0,0
252,70526123046875;	881,75;	0,0;	0,0
252,7438507080078;	546,5;	0,0;	0,0
252,78244018554688;	376,0;	0,0;	0,0
252,8209991455078;	509,5;	0,0;	0,0
252,8595733642578;	931,0;	0,0;	0,0
252,8981475830078;	1382,75;	0,0;	0,0
252,93670654296875;	970,75;	0,0;	0,0
252,97528076171875;	510,0;	0,0;	0,0
253,01382446289062;	360,75;	0,0;	0,0
253,05235290527344;	288,0;	0,0;	0,0
253,09088134765625;	257,25;	0,0;	0,0
253,12942504882812;	231,75;	0,0;	0,0
253,16795349121094;	268,5;	0,0;	0,0
253,2064666748047;	292,25;	0,0;	0,0
253,24497985839844;	389,5;	0,0;	0,0
253,28347778320312;	640,0;	0,0;	0,0
253,32196044921875;	1012,75;	0,0;	0,0
253,36045837402344;	754,75;	0,0;	0,0
253,39895629882812;	793,0;	0,0;	0,0
253,43743896484375;	605,25;	0,0;	0,0
253,4759063720703;	535,0;	0,0;	0,0
253,5143585205078;	749,75;	0,0;	0,0
253,55282592773438;	592,25;	0,0;	0,0
253,59127807617188;	719,0;	0,0;	0,0
253,62974548339844;	1272,5;	0,0;	0,0
253,66818237304688;	1076,5;	0,0;	0,0
253,7065887451172;	557,25;	0,0;	0,0
253,74502563476562;	546,0;	0,0;	0,0
253,78346252441406;	810,5;	0,0;	0,0
253,82188415527344;	1401,75;	0,0;	0,0
253,8602752685547;	1590,75;	0,0;	0,0
253,89869689941406;	593,0;	0,0;	0,0
253,93707275390625;	367,5;	0,0;	0,0
253,9754638671875;	407,75;	0,0;	0,0
254,01385498046875;	629,25;	0,0;	0,0
254,05223083496094;	841,75;	0,0;	0,0
254,0906219482422;	657,5;	0,0;	0,0
254,1289520263672;	580,25;	0,0;	0,0
254,16732788085938;	670,25;	0,0;	0,0
254,2056884765625;	446,5;	0,0;	0,0
254,2440185546875;	465,75;	0,0;	0,0
254,28236389160156;	635,25;	0,0;	0,0
254,32070922851562;	693,0;	0,0;	0,0
254,3590087890625;	580,0;	0,0;	0,0
254,3973388671875;	422,75;	0,0;	0,0
254,4356689453125;	491,75;	0,0;	0,0
254,47396850585938;	625,5;	0,0;	0,0
254,5122833251953;	540,0;	0,0;	0,0
254,55056762695312;	617,5;	0,0;	0,0
254,58885192871094;	643,25;	0,0;	0,0
254,62713623046875;	625,75;	0,0;	0,0
254,6654052734375;	439,25;	0,0;	0,0
254,7036895751953;	373,0;	0,0;	0,0
254,741943359375;	366,25;	0,0;	0,0
254,7801971435547;	483,5;	0,0;	0,0
254,8184356689453;	785,75;	0,0;	0,0
254,856689453125;	891,5;	0,0;	0,0
254,8949432373047;	1062,5;	0,0;	0,0
254,93316650390625;	1070,5;	0,0;	0,0
254,97140502929688;	764,75;	0,0;	0,0
255,0095977783203;	600,25;	0,0;	0,0
255,04782104492188;	485,75;	0,0;	0,0
255,08602905273438;	357,25;	0,0;	0,0
255,12423706054688;	230,75;	0,0;	0,0
255,16241455078125;	214,25;	0,0;	0,0
255,20062255859375;	223,0;	0,0;	0,0
255,23878479003906;	246,25;	0,0;	0,0
255,27696228027344;	244,0;	0,0;	0,0
255,31512451171875;	211,25;	0,0;	0,0
255,35328674316406;	206,0;	0,0;	0,0
255,39144897460938;	199,5;	0,0;	0,0
255,42958068847656;	225,0;	0,0;	0,0
255,46774291992188;	320,0;	0,0;	0,0
255,50587463378906;	272,0;	0,0;	0,0
255,54400634765625;	213,5;	0,0;	0,0
255,58212280273438;	195,25;	0,0;	0,0
255,6202392578125;	217,0;	0,0;	0,0
255,65835571289062;	199,0;	0,0;	0,0
255,6964569091797;	232,0;	0,0;	0,0
255,7345428466797;	216,75;	0,0;	0,0
255,77264404296875;	177,5;	0,0;	0,0
255,81072998046875;	200,5;	0,0;	0,0
255,84881591796875;	222,0;	0,0;	0,0
255,8868865966797;	244,5;	0,0;	0,0
255,92494201660156;	301,25;	0,0;	0,0
255,96299743652344;	379,25;	0,0;	0,0
256,00103759765625;	374,25;	0,0;	0,0
256,0390930175781;	239,5;	0,0;	0,0
256,0771484375;	267,25;	0,0;	0,0
256,1152038574219;	401,5;	0,0;	0,0
256,1531982421875;	705,5;	0,0;	0,0
256,19122314453125;	1330,5;	0,0;	0,0
256,229248046875;	1498,25;	0,0;	0,0
256,2672424316406;	851,5;	0,0;	0,0
256,3052673339844;	1190,75;	0,0;	0,0
256,3432312011719;	553,25;	0,0;	0,0
256,3812561035156;	240,25;	0,0;	0,0
256,4192199707031;	217,5;	0,0;	0,0
256,4571838378906;	185,75;	0,0;	0,0
256,49517822265625;	188,25;	0,0;	0,0
256,5331115722656;	263,5;	0,0;	0,0
256,57110595703125;	349,0;	0,0;	0,0
256,6090087890625;	492,25;	0,0;	0,0
256,64697265625;	688,25;	0,0;	0,0
256,6849060058594;	360,0;	0,0;	0,0
256,72283935546875;	244,75;	0,0;	0,0
256,76080322265625;	261,0;	0,0;	0,0
256,7986755371094;	276,5;	0,0;	0,0
256,83660888671875;	242,0;	0,0;	0,0
256,87451171875;	184,0;	0,0;	0,0
256,91241455078125;	231,75;	0,0;	0,0
256,9503173828125;	255,0;	0,0;	0,0
256,9881896972656;	298,75;	0,0;	0,0
257,02606201171875;	406,0;	0,0;	0,0
257,06396484375;	342,0;	0,0;	0,0
257,101806640625;	202,75;	0,0;	0,0
257,1396789550781;	188,5;	0,0;	0,0
257,1775207519531;	204,75;	0,0;	0,0
257,2153625488281;	213,0;	0,0;	0,0
257,2532043457031;	244,5;	0,0;	0,0
257,291015625;	232,25;	0,0;	0,0
257,3288879394531;	263,75;	0,0;	0,0
257,3666687011719;	435,75;	0,0;	0,0
257,404541015625;	561,0;	0,0;	0,0
257,44232177734375;	290,75;	0,0;	0,0
257,4801330566406;	261,0;	0,0;	0,0
257,5179138183594;	387,75;	0,0;	0,0
257,5556945800781;	589,25;	0,0;	0,0
257,593505859375;	559,5;	0,0;	0,0
257,6312561035156;	438,25;	0,0;	0,0
257,6690673828125;	389,0;	0,0;	0,0
257,7068176269531;	392,75;	0,0;	0,0
257,7445373535156;	637,5;	0,0;	0,0
257,7823181152344;	459,75;	0,0;	0,0
257,8200378417969;	222,0;	0,0;	0,0
257,8577880859375;	212,0;	0,0;	0,0
257,8955383300781;	216,75;	0,0;	0,0
257,9332275390625;	204,75;	0,0;	0,0
257,9709777832031;	187,25;	0,0;	0,0
258,0086975097656;	196,0;	0,0;	0,0
258,04638671875;	211,0;	0,0;	0,0
258,0840759277344;	219,75;	0,0;	0,0
258,1217956542969;	279,25;	0,0;	0,0
258,15948486328125;	411,0;	0,0;	0,0
258,1971435546875;	749,5;	0,0;	0,0
258,23486328125;	738,5;	0,0;	0,0
258,2724914550781;	279,75;	0,0;	0,0
258,3101806640625;	242,0;	0,0;	0,0
258,3478088378906;	242,0;	0,0;	0,0
258,3854675292969;	366,25;	0,0;	0,0
258,423095703125;	458,25;	0,0;	0,0
258,4607238769531;	473,25;	0,0;	0,0
258,49835205078125;	897,5;	0,0;	0,0
258,5360107421875;	1861,5;	0,0;	0,0
258,5736083984375;	1354,0;	0,0;	0,0
258,6112060546875;	359,0;	0,0;	0,0
258,6488037109375;	243,0;	0,0;	0,0
258,6864013671875;	269,25;	0,0;	0,0
258,7239990234375;	341,75;	0,0;	0,0
258,7615661621094;	472,0;	0,0;	0,0
258,7991638183594;	328,5;	0,0;	0,0
258,83673095703125;	217,0;	0,0;	0,0
258,8742980957031;	214,0;	0,0;	0,0
258,9118347167969;	195,25;	0,0;	0,0
258,9494323730469;	211,5;	0,0;	0,0
258,9869689941406;	216,75;	0,0;	0,0
259,02447509765625;	292,5;	0,0;	0,0
259,06201171875;	388,0;	0,0;	0,0
259,09954833984375;	776,0;	0,0;	0,0
259,1370544433594;	676,25;	0,0;	0,0
259,174560546875;	385,25;	0,0;	0,0
259,2120666503906;	496,25;	0,0;	0,0
259,24957275390625;	625,5;	0,0;	0,0
259,28704833984375;	435,5;	0,0;	0,0
259,3245544433594;	618,0;	0,0;	0,0
259,3620300292969;	427,0;	0,0;	0,0
259,3995361328125;	226,5;	0,0;	0,0
259,4369812011719;	217,25;	0,0;	0,0
259,47442626953125;	223,25;	0,0;	0,0
259,51190185546875;	204,5;	0,0;	0,0
259,5493469238281;	195,0;	0,0;	0,0
259,5867919921875;	243,75;	0,0;	0,0
259,62420654296875;	228,0;	0,0;	0,0
259,66162109375;	291,0;	0,0;	0,0
259,6990661621094;	422,75;	0,0;	0,0
259,7364807128906;	883,0;	0,0;	0,0
259,7738952636719;	2047,25;	0,0;	0,0
259,8113098144531;	2559,0;	0,0;	0,0
259,8486633300781;	1874,0;	0,0;	0,0
259,88604736328125;	3102,25;	0,0;	0,0
259,9234313964844;	2566,0;	0,0;	0,0
259,9608154296875;	688,0;	0,0;	0,0
259,9981994628906;	364,5;	0,0;	0,0
260,0355529785156;	249,5;	0,0;	0,0
260,0729064941406;	221,0;	0,0;	0,0
260,1102600097656;	195,0;	0,0;	0,0
260,1476135253906;	192,5;	0,0;	0,0
260,1849365234375;	197,25;	0,0;	0,0
260,2222595214844;	175,75;	0,0;	0,0
260,25958251953125;	194,5;	0,0;	0,0
260,2969055175781;	196,5;	0,0;	0,0
260,334228515625;	213,75;	0,0;	0,0
260,37152099609375;	224,5;	0,0;	0,0
260,4088439941406;	252,25;	0,0;	0,0
260,44610595703125;	343,25;	0,0;	0,0
260,4833679199219;	482,75;	0,0;	0,0
260,52069091796875;	605,75;	0,0;	0,0
260,5579528808594;	528,75;	0,0;	0,0
260,5952453613281;	692,5;	0,0;	0,0
260,6324462890625;	1348,0;	0,0;	0,0
260,66973876953125;	2120,75;	0,0;	0,0
260,70697021484375;	894,75;	0,0;	0,0
260,7441711425781;	317,75;	0,0;	0,0
260,78143310546875;	260,75;	0,0;	0,0
260,81866455078125;	260,0;	0,0;	0,0
260,85589599609375;	297,25;	0,0;	0,0
260,8930969238281;	304,75;	0,0;	0,0
260,9302978515625;	275,25;	0,0;	0,0
260,967529296875;	279,75;	0,0;	0,0
261,0046691894531;	323,5;	0,0;	0,0
261,0419006347656;	450,0;	0,0;	0,0
261,0790710449219;	756,75;	0,0;	0,0
261,1162109375;	1533,0;	0,0;	0,0
261,1534118652344;	2325,75;	0,0;	0,0
261,1905517578125;	881,75;	0,0;	0,0
261,22772216796875;	352,0;	0,0;	0,0
261,2648620605469;	433,25;	0,0;	0,0
261,3019714355469;	894,5;	0,0;	0,0
261,3391418457031;	1589,25;	0,0;	0,0
261,3762512207031;	825,25;	0,0;	0,0
261,41339111328125;	296,5;	0,0;	0,0
261,4504699707031;	224,0;	0,0;	0,0
261,48760986328125;	211,75;	0,0;	0,0
261,52471923828125;	207,5;	0,0;	0,0
261,5617980957031;	205,0;	0,0;	0,0
261,5989074707031;	220,75;	0,0;	0,0
261,6359558105469;	322,0;	0,0;	0,0
261,6730651855469;	617,25;	0,0;	0,0
261,7101135253906;	1278,75;	0,0;	0,0
261,7471618652344;	1021,5;	0,0;	0,0
261,78424072265625;	405,25;	0,0;	0,0
261,8212585449219;	254,5;	0,0;	0,0
261,85833740234375;	309,5;	0,0;	0,0
261,8953552246094;	285,75;	0,0;	0,0
261,93243408203125;	240,25;	0,0;	0,0
261,96942138671875;	276,0;	0,0;	0,0
262,00640869140625;	456,75;	0,0;	0,0
262,04345703125;	387,75;	0,0;	0,0
262,0804443359375;	433,25;	0,0;	0,0
262,117431640625;	771,5;	0,0;	0,0
262,1544494628906;	541,5;	0,0;	0,0
262,19140625;	242,75;	0,0;	0,0
262,2283935546875;	212,75;	0,0;	0,0
262,265380859375;	256,5;	0,0;	0,0
262,3023376464844;	347,25;	0,0;	0,0
262,3392639160156;	337,75;	0,0;	0,0
262,376220703125;	275,75;	0,0;	0,0
262,4131774902344;	300,75;	0,0;	0,0
262,4501037597656;	477,25;	0,0;	0,0
262,487060546875;	1034,5;	0,0;	0,0
262,52398681640625;	1951,75;	0,0;	0,0
262,5608825683594;	832,25;	0,0;	0,0
262,5978088378906;	340,75;	0,0;	0,0
262,6346740722656;	291,5;	0,0;	0,0
262,6716003417969;	295,75;	0,0;	0,0
262,70849609375;	370,25;	0,0;	0,0
262,7453918457031;	752,0;	0,0;	0,0
262,7822570800781;	1523,25;	0,0;	0,0
262,8191223144531;	917,75;	0,0;	0,0
262,8559875488281;	348,25;	0,0;	0,0
262,892822265625;	434,5;	0,0;	0,0
262,9296875;	615,5;	0,0;	0,0
262,966552734375;	593,5;	0,0;	0,0
263,0033874511719;	786,25;	0,0;	0,0
263,04022216796875;	1772,5;	0,0;	0,0
263,0770568847656;	3109,75;	0,0;	0,0
263,1138916015625;	1874,25;	0,0;	0,0
263,1506652832031;	668,75;	0,0;	0,0
263,1875;	353,5;	0,0;	0,0
263,2242736816406;	267,25;	0,0;	0,0
263,2610778808594;	228,25;	0,0;	0,0
263,2978820800781;	227,5;	0,0;	0,0
263,3346252441406;	183,75;	0,0;	0,0
263,3714294433594;	186,75;	0,0;	0,0
263,4081726074219;	194,5;	0,0;	0,0
263,4449462890625;	179,5;	0,0;	0,0
263,4817199707031;	211,25;	0,0;	0,0
263,5184326171875;	284,25;	0,0;	0,0
263,55517578125;	277,25;	0,0;	0,0
263,5918884277344;	215,25;	0,0;	0,0
263,62860107421875;	205,25;	0,0;	0,0
263,66534423828125;	197,5;	0,0;	0,0
263,7020568847656;	228,0;	0,0;	0,0
263,7388000488281;	253,5;	0,0;	0,0
263,7754821777344;	208,0;	0,0;	0,0
263,8121643066406;	196,0;	0,0;	0,0
263,8488464355469;	209,75;	0,0;	0,0
263,8855285644531;	199,5;	0,0;	0,0
263,9222106933594;	237,75;	0,0;	0,0
263,9588928222656;	209,5;	0,0;	0,0
263,99554443359375;	185,5;	0,0;	0,0
264,0321960449219;	172,75;	0,0;	0,0
264,0688171386719;	185,25;	0,0;	0,0
264,1054992675781;	207,75;	0,0;	0,0
264,14208984375;	226,25;	0,0;	0,0
264,1787414550781;	189,25;	0,0;	0,0
264,2153625488281;	148,75;	0,0;	0,0
264,251953125;	173,5;	0,0;	0,0
264,28857421875;	183,25;	0,0;	0,0
264,3251647949219;	184,0;	0,0;	0,0
264,36175537109375;	268,0;	0,0;	0,0
264,3983459472656;	209,75;	0,0;	0,0
264,4349365234375;	175,75;	0,0;	0,0
264,47149658203125;	209,0;	0,0;	0,0
264,5080871582031;	194,5;	0,0;	0,0
264,5446472167969;	201,0;	0,0;	0,0
264,5812072753906;	172,25;	0,0;	0,0
264,61773681640625;	176,75;	0,0;	0,0
264,654296875;	164,5;	0,0;	0,0
264,6907958984375;	175,25;	0,0;	0,0
264,72735595703125;	176,0;	0,0;	0,0
264,76385498046875;	190,5;	0,0;	0,0
264,8003845214844;	181,75;	0,0;	0,0
264,8368835449219;	177,75;	0,0;	0,0
264,8733825683594;	186,0;	0,0;	0,0
264,9098815917969;	193,5;	0,0;	0,0
264,94635009765625;	195,25;	0,0;	0,0
264,98284912109375;	182,75;	0,0;	0,0
265,0193176269531;	195,75;	0,0;	0,0
265,0558166503906;	179,0;	0,0;	0,0
265,0922546386719;	186,75;	0,0;	0,0
265,1286926269531;	196,0;	0,0;	0,0
265,1651611328125;	170,25;	0,0;	0,0
265,20159912109375;	169,25;	0,0;	0,0
265,238037109375;	185,0;	0,0;	0,0
265,27447509765625;	179,75;	0,0;	0,0
265,31085205078125;	177,5;	0,0;	0,0
265,3472900390625;	181,0;	0,0;	0,0
265,3836669921875;	184,5;	0,0;	0,0
265,42010498046875;	166,5;	0,0;	0,0
265,45648193359375;	180,25;	0,0;	0,0
265,49285888671875;	166,75;	0,0;	0,0
265,5292663574219;	186,0;	0,0;	0,0
265,56561279296875;	191,75;	0,0;	0,0
265,6020202636719;	181,25;	0,0;	0,0
265,63836669921875;	177,0;	0,0;	0,0
265,67474365234375;	166,25;	0,0;	0,0
265,7110595703125;	184,5;	0,0;	0,0
265,74737548828125;	194,25;	0,0;	0,0
265,7837219238281;	204,0;	0,0;	0,0
265,8200378417969;	181,5;	0,0;	0,0
265,85638427734375;	167,5;	0,0;	0,0
265,8927307128906;	160,75;	0,0;	0,0
265,92901611328125;	172,0;	0,0;	0,0
265,96533203125;	191,5;	0,0;	0,0
266,0016174316406;	181,25;	0,0;	0,0
266,03790283203125;	172,75;	0,0;	0,0
266,0741882324219;	177,25;	0,0;	0,0
266,1104431152344;	199,0;	0,0;	0,0
266,1466979980469;	194,75;	0,0;	0,0
266,1829528808594;	192,5;	0,0;	0,0
266,21923828125;	180,75;	0,0;	0,0
266,2554626464844;	183,5;	0,0;	0,0
266,2917175292969;	195,5;	0,0;	0,0
266,32794189453125;	230,25;	0,0;	0,0
266,3641662597656;	272,25;	0,0;	0,0
266,4004211425781;	474,25;	0,0;	0,0
266,4366149902344;	667,75;	0,0;	0,0
266,4728088378906;	272,25;	0,0;	0,0
266,5090026855469;	203,0;	0,0;	0,0
266,5451965332031;	229,5;	0,0;	0,0
266,5814208984375;	352,5;	0,0;	0,0
266,6175842285156;	618,75;	0,0;	0,0
266,65374755859375;	515,0;	0,0;	0,0
266,6899108886719;	253,0;	0,0;	0,0
266,7261047363281;	196,25;	0,0;	0,0
266,7622375488281;	183,75;	0,0;	0,0
266,7983703613281;	180,25;	0,0;	0,0
266,83453369140625;	185,0;	0,0;	0,0
266,8706359863281;	179,0;	0,0;	0,0
266,90679931640625;	186,5;	0,0;	0,0
266,9429016113281;	177,75;	0,0;	0,0
266,97900390625;	176,0;	0,0;	0,0
267,01513671875;	183,0;	0,0;	0,0
267,05120849609375;	171,5;	0,0;	0,0
267,08734130859375;	161,75;	0,0;	0,0
267,1234130859375;	181,25;	0,0;	0,0
267,1594543457031;	190,0;	0,0;	0,0
267,1955871582031;	183,0;	0,0;	0,0
267,2315979003906;	181,25;	0,0;	0,0
267,2677001953125;	185,75;	0,0;	0,0
267,3037414550781;	185,5;	0,0;	0,0
267,3397521972656;	152,5;	0,0;	0,0
267,3758239746094;	178,0;	0,0;	0,0
267,4118347167969;	181,0;	0,0;	0,0
267,4479064941406;	166,25;	0,0;	0,0
267,48388671875;	147,25;	0,0;	0,0
267,5199279785156;	163,25;	0,0;	0,0
267,555908203125;	160,0;	0,0;	0,0
267,5918884277344;	176,5;	0,0;	0,0
267,6279296875;	166,5;	0,0;	0,0
267,66387939453125;	191,0;	0,0;	0,0
267,69989013671875;	174,0;	0,0;	0,0
267,73583984375;	173,0;	0,0;	0,0
267,7718200683594;	192,75;	0,0;	0,0
267,8077697753906;	202,25;	0,0;	0,0
267,8437194824219;	272,5;	0,0;	0,0
267,8796691894531;	321,0;	0,0;	0,0
267,9156188964844;	202,5;	0,0;	0,0
267,9515686035156;	187,25;	0,0;	0,0
267,9874572753906;	204,0;	0,0;	0,0
268,02337646484375;	198,75;	0,0;	0,0
268,0592956542969;	186,0;	0,0;	0,0
268,0951843261719;	190,25;	0,0;	0,0
268,131103515625;	188,0;	0,0;	0,0
268,1669616699219;	197,0;	0,0;	0,0
268,2028503417969;	187,25;	0,0;	0,0
268,2387390136719;	191,0;	0,0;	0,0
268,2746276855469;	187,5;	0,0;	0,0
268,3105163574219;	200,5;	0,0;	0,0
268,3463439941406;	190,5;	0,0;	0,0
268,3822021484375;	234,0;	0,0;	0,0
268,41802978515625;	387,0;	0,0;	0,0
268,453857421875;	416,75;	0,0;	0,0
268,4897155761719;	204,25;	0,0;	0,0
268,5255126953125;	163,25;	0,0;	0,0
268,5613098144531;	185,0;	0,0;	0,0
268,59716796875;	176,5;	0,0;	0,0
268,6329345703125;	182,25;	0,0;	0,0
268,66876220703125;	171,0;	0,0;	0,0
268,7045593261719;	180,0;	0,0;	0,0
268,7403259277344;	193,0;	0,0;	0,0
268,7760925292969;	184,75;	0,0;	0,0
268,8118591308594;	190,5;	0,0;	0,0
268,84765625;	245,5;	0,0;	0,0
268,88336181640625;	353,5;	0,0;	0,0
268,9191589355469;	259,0;	0,0;	0,0
268,95489501953125;	211,75;	0,0;	0,0
268,9906005859375;	201,75;	0,0;	0,0
269,0263366699219;	172,75;	0,0;	0,0
269,06207275390625;	180,25;	0,0;	0,0
269,0977783203125;	199,0;	0,0;	0,0
269,13348388671875;	213,25;	0,0;	0,0
269,1692199707031;	251,25;	0,0;	0,0
269,20489501953125;	443,25;	0,0;	0,0
269,2405700683594;	530,5;	0,0;	0,0
269,2762451171875;	239,5;	0,0;	0,0
269,3119201660156;	193,5;	0,0;	0,0
269,34759521484375;	202,0;	0,0;	0,0
269,3832702636719;	203,0;	0,0;	0,0
269,41888427734375;	205,75;	0,0;	0,0
269,45458984375;	205,75;	0,0;	0,0
269,4902038574219;	210,25;	0,0;	0,0
269,5258483886719;	241,5;	0,0;	0,0
269,56146240234375;	240,0;	0,0;	0,0
269,5970764160156;	221,25;	0,0;	0,0
269,6327209472656;	213,25;	0,0;	0,0
269,6683044433594;	230,5;	0,0;	0,0
269,70391845703125;	214,25;	0,0;	0,0
269,739501953125;	199,5;	0,0;	0,0
269,77508544921875;	188,5;	0,0;	0,0
269,8106689453125;	172,0;	0,0;	0,0
269,84625244140625;	212,25;	0,0;	0,0
269,8818054199219;	254,0;	0,0;	0,0
269,9173583984375;	193,25;	0,0;	0,0
269,9529113769531;	182,75;	0,0;	0,0
269,98846435546875;	166,5;	0,0;	0,0
270,0240173339844;	176,0;	0,0;	0,0
270,0595397949219;	171,0;	0,0;	0,0
270,0950622558594;	182,0;	0,0;	0,0
270,1305847167969;	181,25;	0,0;	0,0
270,16607666015625;	181,25;	0,0;	0,0
270,2015686035156;	194,5;	0,0;	0,0
270,2370910644531;	184,0;	0,0;	0,0
270,2725830078125;	190,5;	0,0;	0,0
270,3080749511719;	238,5;	0,0;	0,0
270,3435363769531;	438,0;	0,0;	0,0
270,3790283203125;	442,75;	0,0;	0,0
270,41448974609375;	199,0;	0,0;	0,0
270,4499206542969;	199,25;	0,0;	0,0
270,4853820800781;	180,75;	0,0;	0,0
270,5208435058594;	199,0;	0,0;	0,0
270,5562744140625;	266,75;	0,0;	0,0
270,5917053222656;	308,5;	0,0;	0,0
270,62713623046875;	408,0;	0,0;	0,0
270,66253662109375;	277,25;	0,0;	0,0
270,69793701171875;	233,5;	0,0;	0,0
270,7333679199219;	190,25;	0,0;	0,0
270,7687683105469;	195,25;	0,0;	0,0
270,8041076660156;	258,5;	0,0;	0,0
270,8395080566406;	278,0;	0,0;	0,0
270,8748779296875;	271,25;	0,0;	0,0
270,9102783203125;	196,5;	0,0;	0,0
270,94561767578125;	181,5;	0,0;	0,0
270,98095703125;	213,25;	0,0;	0,0
271,016357421875;	224,5;	0,0;	0,0
271,0516662597656;	210,0;	0,0;	0,0
271,0870056152344;	243,75;	0,0;	0,0
271,122314453125;	424,75;	0,0;	0,0
271,15765380859375;	441,5;	0,0;	0,0
271,1929626464844;	269,25;	0,0;	0,0
271,228271484375;	220,5;	0,0;	0,0
271,2635498046875;	195,75;	0,0;	0,0
271,2988586425781;	232,75;	0,0;	0,0
271,3341369628906;	281,25;	0,0;	0,0
271,36944580078125;	611,5;	0,0;	0,0
271,4046936035156;	1140,75;	0,0;	0,0
271,4399719238281;	516,25;	0,0;	0,0
271,4752197265625;	251,75;	0,0;	0,0
271,5104675292969;	195,5;	0,0;	0,0
271,5457458496094;	282,75;	0,0;	0,0
271,58099365234375;	410,75;	0,0;	0,0
271,6161804199219;	301,5;	0,0;	0,0
271,65142822265625;	207,75;	0,0;	0,0
271,6866455078125;	207,75;	0,0;	0,0
271,7218322753906;	211,25;	0,0;	0,0
271,7570495605469;	267,75;	0,0;	0,0
271,792236328125;	390,75;	0,0;	0,0
271,82745361328125;	655,25;	0,0;	0,0
271,8626403808594;	1165,25;	0,0;	0,0
271,8977966308594;	642,5;	0,0;	0,0
271,9329833984375;	287,25;	0,0;	0,0
271,9681396484375;	258,25;	0,0;	0,0
272,0032653808594;	358,5;	0,0;	0,0
272,0384216308594;	706,5;	0,0;	0,0
272,0735778808594;	628,25;	0,0;	0,0
272,10870361328125;	264,0;	0,0;	0,0
272,1438293457031;	197,5;	0,0;	0,0
272,178955078125;	232,75;	0,0;	0,0
272,2140808105469;	205,75;	0,0;	0,0
272,2491760253906;	232,5;	0,0;	0,0
272,2843017578125;	285,5;	0,0;	0,0
272,31939697265625;	499,25;	0,0;	0,0
272,3544921875;	335,75;	0,0;	0,0
272,3895568847656;	236,75;	0,0;	0,0
272,4245910644531;	352,75;	0,0;	0,0
272,4596862792969;	492,75;	0,0;	0,0
272,4947509765625;	275,0;	0,0;	0,0
272,5298156738281;	228,75;	0,0;	0,0
272,56488037109375;	301,75;	0,0;	0,0
272,5998840332031;	310,75;	0,0;	0,0
272,6349182128906;	320,25;	0,0;	0,0
272,6699523925781;	527,5;	0,0;	0,0
272,7049865722656;	1261,75;	0,0;	0,0
272,739990234375;	962,75;	0,0;	0,0
272,7750244140625;	353,75;	0,0;	0,0
272,80999755859375;	246,0;	0,0;	0,0
272,844970703125;	267,75;	0,0;	0,0
272,8799743652344;	219,25;	0,0;	0,0
272,9149475097656;	206,75;	0,0;	0,0
272,9499206542969;	208,25;	0,0;	0,0
272,9848937988281;	272,0;	0,0;	0,0
273,0198059082031;	446,75;	0,0;	0,0
273,0547790527344;	516,5;	0,0;	0,0
273,0897216796875;	227,25;	0,0;	0,0
273,12469482421875;	213,5;	0,0;	0,0
273,1595764160156;	191,5;	0,0;	0,0
273,1944885253906;	205,25;	0,0;	0,0
273,22943115234375;	215,75;	0,0;	0,0
273,2643127441406;	279,0;	0,0;	0,0
273,2992248535156;	500,75;	0,0;	0,0
273,3341064453125;	647,75;	0,0;	0,0
273,3690185546875;	310,0;	0,0;	0,0
273,4039001464844;	259,25;	0,0;	0,0
273,4387512207031;	249,5;	0,0;	0,0
273,4736328125;	316,75;	0,0;	0,0
273,50848388671875;	525,25;	0,0;	0,0
273,5433654785156;	366,5;	0,0;	0,0
273,5782165527344;	287,0;	0,0;	0,0
273,613037109375;	377,75;	0,0;	0,0
273,64788818359375;	932,25;	0,0;	0,0
273,68267822265625;	1031,0;	0,0;	0,0
273,717529296875;	578,25;	0,0;	0,0
273,7523193359375;	292,5;	0,0;	0,0
273,787109375;	290,75;	0,0;	0,0
273,8219299316406;	368,0;	0,0;	0,0
273,8567199707031;	683,5;	0,0;	0,0
273,8915100097656;	1770,5;	0,0;	0,0
273,9263000488281;	2578,75;	0,0;	0,0
273,9610900878906;	914,75;	0,0;	0,0
273,99578857421875;	334,5;	0,0;	0,0
274,0305480957031;	259,25;	0,0;	0,0
274,0653381347656;	245,25;	0,0;	0,0
274,1000671386719;	300,75;	0,0;	0,0
274,13482666015625;	313,75;	0,0;	0,0
274,1695251464844;	605,25;	0,0;	0,0
274,2042236328125;	1042,5;	0,0;	0,0
274,2389831542969;	872,0;	0,0;	0,0
274,2736511230469;	1640,75;	0,0;	0,0
274,3083801269531;	1290,75;	0,0;	0,0
274,34307861328125;	516,0;	0,0;	0,0
274,3777160644531;	518,25;	0,0;	0,0
274,4124450683594;	373,0;	0,0;	0,0
274,44708251953125;	292,75;	0,0;	0,0
274,4817810058594;	286,25;	0,0;	0,0
274,51641845703125;	368,0;	0,0;	0,0
274,5510559082031;	601,0;	0,0;	0,0
274,5857238769531;	1649,5;	0,0;	0,0
274,620361328125;	2808,75;	0,0;	0,0
274,6549987792969;	2598,5;	0,0;	0,0
274,68963623046875;	1336,0;	0,0;	0,0
274,7242431640625;	471,5;	0,0;	0,0
274,75885009765625;	333,75;	0,0;	0,0
274,79345703125;	456,25;	0,0;	0,0
274,82806396484375;	850,25;	0,0;	0,0
274,86260986328125;	2263,5;	0,0;	0,0
274,8972473144531;	4013,25;	0,0;	0,0
274,9317932128906;	1884,75;	0,0;	0,0
274,96636962890625;	842,5;	0,0;	0,0
275,00091552734375;	611,0;	0,0;	0,0
275,03546142578125;	319,25;	0,0;	0,0
275,0700378417969;	277,5;	0,0;	0,0
275,1045837402344;	255,75;	0,0;	0,0
275,1391296386719;	247,25;	0,0;	0,0
275,17364501953125;	246,0;	0,0;	0,0
275,2081604003906;	255,0;	0,0;	0,0
275,24267578125;	393,75;	0,0;	0,0
275,27716064453125;	812,75;	0,0;	0,0
275,31170654296875;	798,0;	0,0;	0,0
275,3461608886719;	400,0;	0,0;	0,0
275,3806457519531;	320,0;	0,0;	0,0
275,4151611328125;	340,25;	0,0;	0,0
275,4495849609375;	498,25;	0,0;	0,0
275,48406982421875;	915,5;	0,0;	0,0
275,5185241699219;	2470,5;	0,0;	0,0
275,5529479980469;	2742,5;	0,0;	0,0
275,5874328613281;	1026,0;	0,0;	0,0
275,621826171875;	491,5;	0,0;	0,0
275,6562805175781;	323,75;	0,0;	0,0
275,6907043457031;	316,25;	0,0;	0,0
275,72515869140625;	242,75;	0,0;	0,0
275,759521484375;	214,5;	0,0;	0,0
275,7939147949219;	190,25;	0,0;	0,0
275,82830810546875;	180,75;	0,0;	0,0
275,8627014160156;	165,0;	0,0;	0,0
275,8971252441406;	183,75;	0,0;	0,0
275,93145751953125;	206,25;	0,0;	0,0
275,9658203125;	201,0;	0,0;	0,0
276,00018310546875;	190,25;	0,0;	0,0
276,0345458984375;	191,0;	0,0;	0,0
276,06890869140625;	218,75;	0,0;	0,0
276,10321044921875;	340,0;	0,0;	0,0
276,1375732421875;	603,0;	0,0;	0,0
276,171875;	536,5;	0,0;	0,0
276,2062072753906;	274,5;	0,0;	0,0
276,24053955078125;	245,25;	0,0;	0,0
276,2748107910156;	228,0;	0,0;	0,0
276,3091125488281;	204,0;	0,0;	0,0
276,3434143066406;	207,25;	0,0;	0,0
276,377685546875;	204,75;	0,0;	0,0
276,4119567871094;	210,5;	0,0;	0,0
276,44622802734375;	178,5;	0,0;	0,0
276,4804992675781;	179,5;	0,0;	0,0
276,5147399902344;	172,5;	0,0;	0,0
276,54901123046875;	184,75;	0,0;	0,0
276,583251953125;	216,75;	0,0;	0,0
276,6174621582031;	254,25;	0,0;	0,0
276,6517333984375;	382,25;	0,0;	0,0
276,6859130859375;	714,25;	0,0;	0,0
276,7201232910156;	1123,75;	0,0;	0,0
276,7543640136719;	509,25;	0,0;	0,0
276,78851318359375;	255,5;	0,0;	0,0
276,8227233886719;	262,0;	0,0;	0,0
276,8569030761719;	362,5;	0,0;	0,0
276,89111328125;	421,75;	0,0;	0,0
276,9252624511719;	297,5;	0,0;	0,0
276,95941162109375;	197,25;	0,0;	0,0
276,9935607910156;	207,5;	0,0;	0,0
277,0277099609375;	203,25;	0,0;	0,0
277,0618896484375;	203,25;	0,0;	0,0
277,09600830078125;	194,75;	0,0;	0,0
277,130126953125;	210,0;	0,0;	0,0
277,1642761230469;	341,25;	0,0;	0,0
277,1983642578125;	295,0;	0,0;	0,0
277,23248291015625;	208,5;	0,0;	0,0
277,2666015625;	196,75;	0,0;	0,0
277,3006896972656;	188,5;	0,0;	0,0
277,33477783203125;	190,5;	0,0;	0,0
277,36883544921875;	191,0;	0,0;	0,0
277,4029235839844;	197,25;	0,0;	0,0
277,4369812011719;	261,25;	0,0;	0,0
277,4710388183594;	199,25;	0,0;	0,0
277,5050964355469;	174,75;	0,0;	0,0
277,53912353515625;	167,0;	0,0;	0,0
277,5731506347656;	168,0;	0,0;	0,0
277,6072082519531;	209,0;	0,0;	0,0
277,6412353515625;	204,5;	0,0;	0,0
277,67523193359375;	211,25;	0,0;	0,0
277,709228515625;	205,0;	0,0;	0,0
277,7432556152344;	256,5;	0,0;	0,0
277,7772521972656;	359,0;	0,0;	0,0
277,8112487792969;	301,75;	0,0;	0,0
277,84521484375;	295,5;	0,0;	0,0
277,8791809082031;	479,5;	0,0;	0,0
277,91314697265625;	397,75;	0,0;	0,0
277,94708251953125;	237,0;	0,0;	0,0
277,9810791015625;	195,25;	0,0;	0,0
278,0150146484375;	195,25;	0,0;	0,0
278,0489501953125;	190,25;	0,0;	0,0
278,0828857421875;	183,75;	0,0;	0,0
278,1167907714844;	173,0;	0,0;	0,0
278,1507263183594;	194,0;	0,0;	0,0
278,18463134765625;	207,0;	0,0;	0,0
278,21856689453125;	183,5;	0,0;	0,0
278,2524108886719;	201,25;	0,0;	0,0
278,28631591796875;	307,5;	0,0;	0,0
278,3202209472656;	533,5;	0,0;	0,0
278,3540954589844;	475,0;	0,0;	0,0
278,387939453125;	221,25;	0,0;	0,0
278,42181396484375;	188,5;	0,0;	0,0
278,4556884765625;	200,75;	0,0;	0,0
278,489501953125;	270,75;	0,0;	0,0
278,5233459472656;	212,5;	0,0;	0,0
278,55718994140625;	205,0;	0,0;	0,0
278,59100341796875;	166,75;	0,0;	0,0
278,62481689453125;	169,25;	0,0;	0,0
278,65863037109375;	186,75;	0,0;	0,0
278,6924133300781;	192,25;	0,0;	0,0
278,72625732421875;	307,0;	0,0;	0,0
278,760009765625;	575,25;	0,0;	0,0
278,7938232421875;	519,5;	0,0;	0,0
278,8276062011719;	224,25;	0,0;	0,0
278,861328125;	196,5;	0,0;	0,0
278,8951110839844;	184,5;	0,0;	0,0
278,92889404296875;	209,0;	0,0;	0,0
278,962646484375;	172,25;	0,0;	0,0
278,9963684082031;	170,5;	0,0;	0,0
279,03009033203125;	191,25;	0,0;	0,0
279,0638122558594;	186,75;	0,0;	0,0
279,0975341796875;	199,5;	0,0;	0,0
279,1312561035156;	215,0;	0,0;	0,0
279,1649475097656;	170,75;	0,0;	0,0
279,19866943359375;	177,0;	0,0;	0,0
279,23236083984375;	168,25;	0,0;	0,0
279,2659912109375;	185,75;	0,0;	0,0
279,2997131347656;	190,0;	0,0;	0,0
279,3333740234375;	236,75;	0,0;	0,0
279,3670349121094;	277,0;	0,0;	0,0
279,40069580078125;	273,0;	0,0;	0,0
279,434326171875;	458,25;	0,0;	0,0
279,4679870605469;	564,5;	0,0;	0,0
279,5016174316406;	1105,25;	0,0;	0,0
279,5352478027344;	1095,0;	0,0;	0,0
279,5688781738281;	335,5;	0,0;	0,0
279,6025085449219;	216,0;	0,0;	0,0
279,6360778808594;	200,75;	0,0;	0,0
279,669677734375;	187,5;	0,0;	0,0
279,70330810546875;	218,0;	0,0;	0,0
279,7368469238281;	319,75;	0,0;	0,0
279,77044677734375;	384,5;	0,0;	0,0
279,80401611328125;	390,25;	0,0;	0,0
279,8375549316406;	201,75;	0,0;	0,0
279,8711242675781;	206,5;	0,0;	0,0
279,9046936035156;	216,75;	0,0;	0,0
279,938232421875;	196,25;	0,0;	0,0
279,97174072265625;	192,5;	0,0;	0,0
280,0052795410156;	200,75;	0,0;	0,0
280,038818359375;	221,75;	0,0;	0,0
280,0722961425781;	314,25;	0,0;	0,0
280,1058349609375;	225,0;	0,0;	0,0
280,1393127441406;	209,75;	0,0;	0,0
280,17279052734375;	260,25;	0,0;	0,0
280,206298828125;	472,25;	0,0;	0,0
280,23974609375;	812,5;	0,0;	0,0
280,2732238769531;	358,5;	0,0;	0,0
280,3067321777344;	220,75;	0,0;	0,0
280,3401794433594;	187,5;	0,0;	0,0
280,3736267089844;	219,0;	0,0;	0,0
280,40704345703125;	323,75;	0,0;	0,0
280,4405212402344;	284,75;	0,0;	0,0
280,47393798828125;	186,75;	0,0;	0,0
280,5073547363281;	174,75;	0,0;	0,0
280,5407409667969;	181,5;	0,0;	0,0
280,57415771484375;	200,75;	0,0;	0,0
280,6075744628906;	194,75;	0,0;	0,0
280,6409606933594;	293,25;	0,0;	0,0
280,6743469238281;	359,25;	0,0;	0,0
280,70770263671875;	203,75;	0,0;	0,0
280,7410888671875;	170,75;	0,0;	0,0
280,77447509765625;	164,25;	0,0;	0,0
280,8077697753906;	164,0;	0,0;	0,0
280,8411560058594;	172,0;	0,0;	0,0
280,87451171875;	173,75;	0,0;	0,0
280,9078369140625;	167,75;	0,0;	0,0
280,941162109375;	170,5;	0,0;	0,0
280,9744567871094;	175,5;	0,0;	0,0
281,0078125;	161,0;	0,0;	0,0
281,0411071777344;	168,25;	0,0;	0,0
281,0744323730469;	179,75;	0,0;	0,0
281,1076965332031;	170,25;	0,0;	0,0
281,1409606933594;	174,75;	0,0;	0,0
281,1742858886719;	181,5;	0,0;	0,0
281,20751953125;	202,0;	0,0;	0,0
281,24078369140625;	252,75;	0,0;	0,0
281,2740478515625;	421,5;	0,0;	0,0
281,3072814941406;	486,75;	0,0;	0,0
281,3405456542969;	223,75;	0,0;	0,0
281,373779296875;	196,0;	0,0;	0,0
281,4070129394531;	162,25;	0,0;	0,0
281,4402160644531;	164,75;	0,0;	0,0
281,47344970703125;	156,25;	0,0;	0,0
281,50665283203125;	175,75;	0,0;	0,0
281,5398254394531;	170,0;	0,0;	0,0
281,5730285644531;	152,0;	0,0;	0,0
281,606201171875;	166,25;	0,0;	0,0
281,639404296875;	178,0;	0,0;	0,0
281,6725769042969;	173,25;	0,0;	0,0
281,70574951171875;	191,5;	0,0;	0,0
281,7389221191406;	173,0;	0,0;	0,0
281,77203369140625;	165,0;	0,0;	0,0
281,80517578125;	155,5;	0,0;	0,0
281,83831787109375;	163,5;	0,0;	0,0
281,8714294433594;	183,25;	0,0;	0,0
281,9045715332031;	188,5;	0,0;	0,0
281,93768310546875;	156,5;	0,0;	0,0
281,97076416015625;	165,75;	0,0;	0,0
282,0038757324219;	172,75;	0,0;	0,0
282,0369567871094;	160,0;	0,0;	0,0
282,070068359375;	182,75;	0,0;	0,0
282,1031188964844;	160,25;	0,0;	0,0
282,1361999511719;	149,25;	0,0;	0,0
282,16925048828125;	160,75;	0,0;	0,0
282,20233154296875;	190,5;	0,0;	0,0
282,2353820800781;	186,25;	0,0;	0,0
282,2684020996094;	261,0;	0,0;	0,0
282,30145263671875;	338,5;	0,0;	0,0
282,33447265625;	217,25;	0,0;	0,0
282,36749267578125;	177,75;	0,0;	0,0
282,4004821777344;	177,5;	0,0;	0,0
282,4334716796875;	182,0;	0,0;	0,0
282,4665222167969;	205,75;	0,0;	0,0
282,49951171875;	289,5;	0,0;	0,0
282,5325012207031;	395,75;	0,0;	0,0
282,5654602050781;	236,25;	0,0;	0,0
282,59844970703125;	162,5;	0,0;	0,0
282,63140869140625;	158,75;	0,0;	0,0
282,6643371582031;	163,75;	0,0;	0,0
282,69732666015625;	173,25;	0,0;	0,0
282,730224609375;	212,5;	0,0;	0,0
282,76318359375;	199,25;	0,0;	0,0
282,79608154296875;	204,75;	0,0;	0,0
282,82904052734375;	232,25;	0,0;	0,0
282,8619384765625;	220,5;	0,0;	0,0
282,8948059082031;	180,75;	0,0;	0,0
282,927734375;	170,0;	0,0;	0,0
282,96063232421875;	174,75;	0,0;	0,0
282,9934997558594;	166,0;	0,0;	0,0
283,0263671875;	180,75;	0,0;	0,0
283,0592346191406;	194,75;	0,0;	0,0
283,09210205078125;	319,0;	0,0;	0,0
283,1249694824219;	441,75;	0,0;	0,0
283,1578063964844;	310,5;	0,0;	0,0
283,1906433105469;	399,75;	0,0;	0,0
283,2234802246094;	408,75;	0,0;	0,0
283,2563171386719;	239,0;	0,0;	0,0
283,28912353515625;	215,25;	0,0;	0,0
283,32196044921875;	199,75;	0,0;	0,0
283,354736328125;	198,75;	0,0;	0,0
283,38751220703125;	170,25;	0,0;	0,0
283,42034912109375;	195,0;	0,0;	0,0
283,4530944824219;	186,5;	0,0;	0,0
283,48590087890625;	215,25;	0,0;	0,0
283,5186462402344;	327,25;	0,0;	0,0
283,5513916015625;	329,0;	0,0;	0,0
283,58416748046875;	206,0;	0,0;	0,0
283,61688232421875;	212,75;	0,0;	0,0
283,649658203125;	180,5;	0,0;	0,0
283,682373046875;	183,5;	0,0;	0,0
283,7151184082031;	192,0;	0,0;	0,0
283,7478332519531;	229,0;	0,0;	0,0
283,780517578125;	312,75;	0,0;	0,0
283,8132629394531;	216,75;	0,0;	0,0
283,8459167480469;	197,75;	0,0;	0,0
283,8786315917969;	191,5;	0,0;	0,0
283,9112854003906;	222,0;	0,0;	0,0
283,9439697265625;	255,75;	0,0;	0,0
283,97662353515625;	285,25;	0,0;	0,0
284,00927734375;	405,25;	0,0;	0,0
284,04193115234375;	385,75;	0,0;	0,0
284,0745849609375;	227,0;	0,0;	0,0
284,10723876953125;	189,75;	0,0;	0,0
284,1398620605469;	179,0;	0,0;	0,0
284,1724548339844;	163,5;	0,0;	0,0
284,2051086425781;	171,75;	0,0;	0,0
284,2377014160156;	178,5;	0,0;	0,0
284,27032470703125;	218,25;	0,0;	0,0
284,3028869628906;	339,5;	0,0;	0,0
284,33544921875;	453,25;	0,0;	0,0
284,3680419921875;	490,25;	0,0;	0,0
284,400634765625;	231,25;	0,0;	0,0
284,4331970214844;	177,0;	0,0;	0,0
284,46575927734375;	196,25;	0,0;	0,0
284,498291015625;	226,5;	0,0;	0,0
284,5308532714844;	270,0;	0,0;	0,0
284,5633544921875;	219,0;	0,0;	0,0
284,5959167480469;	189,5;	0,0;	0,0
284,62841796875;	188,0;	0,0;	0,0
284,6609191894531;	177,75;	0,0;	0,0
284,6934509277344;	186,0;	0,0;	0,0
284,7259521484375;	199,5;	0,0;	0,0
284,7584533691406;	248,75;	0,0;	0,0
284,7909240722656;	239,5;	0,0;	0,0
284,8233947753906;	240,25;	0,0;	0,0
284,8558654785156;	226,0;	0,0;	0,0
284,8883361816406;	193,25;	0,0;	0,0
284,9208068847656;	216,75;	0,0;	0,0
284,9532165527344;	207,25;	0,0;	0,0
284,9856872558594;	177,0;	0,0;	0,0
285,0180969238281;	168,5;	0,0;	0,0
285,0505676269531;	171,0;	0,0;	0,0
285,0829772949219;	214,75;	0,0;	0,0
285,1153564453125;	410,0;	0,0;	0,0
285,14776611328125;	656,5;	0,0;	0,0
285,18017578125;	835,75;	0,0;	0,0
285,21258544921875;	367,0;	0,0;	0,0
285,2449645996094;	198,75;	0,0;	0,0
285,2773132324219;	177,5;	0,0;	0,0
285,3096923828125;	188,75;	0,0;	0,0
285,342041015625;	165,75;	0,0;	0,0
285,3744201660156;	176,0;	0,0;	0,0
285,4067687988281;	179,25;	0,0;	0,0
285,4390869140625;	163,25;	0,0;	0,0
285,471435546875;	174,75;	0,0;	0,0
285,50372314453125;	202,25;	0,0;	0,0
285,53607177734375;	259,0;	0,0;	0,0
285,568359375;	246,0;	0,0;	0,0
285,60064697265625;	194,0;	0,0;	0,0
285,6329650878906;	213,25;	0,0;	0,0
285,6652526855469;	243,5;	0,0;	0,0
285,69757080078125;	235,5;	0,0;	0,0
285,7298278808594;	233,5;	0,0;	0,0
285,7620544433594;	266,5;	0,0;	0,0
285,7943420410156;	395,0;	0,0;	0,0
285,8265686035156;	291,25;	0,0;	0,0
285,8588562011719;	210,25;	0,0;	0,0
285,89105224609375;	164,75;	0,0;	0,0
285,9233093261719;	160,75;	0,0;	0,0
285,95550537109375;	169,5;	0,0;	0,0
285,98773193359375;	164,5;	0,0;	0,0
286,0199279785156;	159,0;	0,0;	0,0
286,0521545410156;	172,75;	0,0;	0,0
286,0843505859375;	162,25;	0,0;	0,0
286,11651611328125;	177,25;	0,0;	0,0
286,1487121582031;	152,25;	0,0;	0,0
286,1808776855469;	166,0;	0,0;	0,0
286,2130432128906;	176,75;	0,0;	0,0
286,2452087402344;	174,5;	0,0;	0,0
286,27734375;	192,0;	0,0;	0,0
286,3094787597656;	220,5;	0,0;	0,0
286,3416442871094;	227,5;	0,0;	0,0
286,3737487792969;	194,25;	0,0;	0,0
286,4058837890625;	158,25;	0,0;	0,0
286,43798828125;	166,0;	0,0;	0,0
286,4700927734375;	175,75;	0,0;	0,0
286,502197265625;	161,25;	0,0;	0,0
286,5342712402344;	173,0;	0,0;	0,0
286,5663757324219;	179,0;	0,0;	0,0
286,59844970703125;	170,0;	0,0;	0,0
286,6304931640625;	210,25;	0,0;	0,0
286,66253662109375;	185,0;	0,0;	0,0
286,6946105957031;	163,5;	0,0;	0,0
286,7266845703125;	167,0;	0,0;	0,0
286,7586669921875;	184,5;	0,0;	0,0
286,7907409667969;	195,0;	0,0;	0,0
286,82275390625;	203,5;	0,0;	0,0
286,854736328125;	217,25;	0,0;	0,0
286,88677978515625;	286,5;	0,0;	0,0
286,91876220703125;	246,25;	0,0;	0,0
286,9508056640625;	194,0;	0,0;	0,0
286,9827575683594;	164,75;	0,0;	0,0
287,0147705078125;	179,5;	0,0;	0,0
287,0467224121094;	185,75;	0,0;	0,0
287,07867431640625;	219,5;	0,0;	0,0
287,11065673828125;	178,0;	0,0;	0,0
287,142578125;	182,25;	0,0;	0,0
287,174560546875;	226,25;	0,0;	0,0
287,2064514160156;	295,75;	0,0;	0,0
287,2384033203125;	214,75;	0,0;	0,0
287,2703552246094;	228,0;	0,0;	0,0
287,30224609375;	340,5;	0,0;	0,0
287,33416748046875;	252,5;	0,0;	0,0
287,3660583496094;	250,75;	0,0;	0,0
287,39794921875;	251,25;	0,0;	0,0
287,4298400878906;	188,5;	0,0;	0,0
287,461669921875;	194,25;	0,0;	0,0
287,4935607910156;	251,25;	0,0;	0,0
287,5254211425781;	210,25;	0,0;	0,0
287,55731201171875;	157,0;	0,0;	0,0
287,5891418457031;	183,25;	0,0;	0,0
287,6209411621094;	183,0;	0,0;	0,0
287,6528015136719;	214,5;	0,0;	0,0
287,68463134765625;	212,5;	0,0;	0,0
287,7164611816406;	188,0;	0,0;	0,0
287,7482604980469;	168,0;	0,0;	0,0
287,7800598144531;	169,5;	0,0;	0,0
287,8118896484375;	173,25;	0,0;	0,0
287,8436279296875;	193,25;	0,0;	0,0
287,8754577636719;	185,0;	0,0;	0,0
287,9071960449219;	181,0;	0,0;	0,0
287,9389343261719;	170,25;	0,0;	0,0
287,9707336425781;	175,5;	0,0;	0,0
288,0024719238281;	213,5;	0,0;	0,0
288,03424072265625;	302,5;	0,0;	0,0
288,0659484863281;	269,0;	0,0;	0,0
288,09771728515625;	220,0;	0,0;	0,0
288,1294250488281;	247,75;	0,0;	0,0
288,1611633300781;	179,25;	0,0;	0,0
288,19287109375;	150,75;	0,0;	0,0
288,22454833984375;	179,0;	0,0;	0,0
288,2562561035156;	161,5;	0,0;	0,0
288,2879333496094;	177,75;	0,0;	0,0
288,31964111328125;	248,5;	0,0;	0,0
288,35125732421875;	259,25;	0,0;	0,0
288,3829345703125;	183,0;	0,0;	0,0
288,41461181640625;	165,75;	0,0;	0,0
288,4462585449219;	173,25;	0,0;	0,0
288,4778747558594;	180,75;	0,0;	0,0
288,509521484375;	170,5;	0,0;	0,0
288,5411376953125;	177,5;	0,0;	0,0
288,57275390625;	194,25;	0,0;	0,0
288,6043701171875;	175,5;	0,0;	0,0
288,635986328125;	187,75;	0,0;	0,0
288,6675720214844;	168,25;	0,0;	0,0
288,69915771484375;	171,25;	0,0;	0,0
288,73077392578125;	187,0;	0,0;	0,0
288,7623291015625;	188,25;	0,0;	0,0
288,79388427734375;	172,25;	0,0;	0,0
288,8254699707031;	174,5;	0,0;	0,0
288,85699462890625;	169,5;	0,0;	0,0
288,8885498046875;	175,0;	0,0;	0,0
288,9200744628906;	172,0;	0,0;	0,0
288,9516296386719;	180,0;	0,0;	0,0
288,9831237792969;	150,75;	0,0;	0,0
289,0146789550781;	177,25;	0,0;	0,0
289,0461730957031;	172,0;	0,0;	0,0
289,0776672363281;	157,0;	0,0;	0,0
289,1091613769531;	171,5;	0,0;	0,0
289,140625;	158,75;	0,0;	0,0
289,172119140625;	171,0;	0,0;	0,0
289,2035827636719;	178,5;	0,0;	0,0
289,2350769042969;	178,0;	0,0;	0,0
289,26654052734375;	188,25;	0,0;	0,0
289,2979431152344;	174,75;	0,0;	0,0
289,32940673828125;	176,5;	0,0;	0,0
289,36083984375;	174,75;	0,0;	0,0
289,39227294921875;	235,0;	0,0;	0,0
289,4237060546875;	255,0;	0,0;	0,0
289,455078125;	267,75;	0,0;	0,0
289,48651123046875;	257,75;	0,0;	0,0
289,51788330078125;	181,25;	0,0;	0,0
289,5492858886719;	160,0;	0,0;	0,0
289,5806884765625;	166,5;	0,0;	0,0
289,6120300292969;	156,25;	0,0;	0,0
289,6434020996094;	180,25;	0,0;	0,0
289,6747741699219;	200,0;	0,0;	0,0
289,7061462402344;	227,5;	0,0;	0,0
289,7374572753906;	186,75;	0,0;	0,0
289,768798828125;	149,0;	0,0;	0,0
289,8001403808594;	171,0;	0,0;	0,0
289,8314514160156;	174,0;	0,0;	0,0
289,8627624511719;	189,75;	0,0;	0,0
289,8940734863281;	186,75;	0,0;	0,0
289,92535400390625;	204,0;	0,0;	0,0
289,9566650390625;	184,5;	0,0;	0,0
289,9879455566406;	169,5;	0,0;	0,0
290,0192565917969;	156,25;	0,0;	0,0
290,05047607421875;	166,25;	0,0;	0,0
290,081787109375;	186,0;	0,0;	0,0
290,113037109375;	171,25;	0,0;	0,0
290,1442565917969;	175,75;	0,0;	0,0
290,1755065917969;	196,0;	0,0;	0,0
290,2067565917969;	177,5;	0,0;	0,0
290,23797607421875;	163,0;	0,0;	0,0
290,2691955566406;	156,5;	0,0;	0,0
290,3004150390625;	159,75;	0,0;	0,0
290,33160400390625;	171,5;	0,0;	0,0
290,36279296875;	169,25;	0,0;	0,0
290,39398193359375;	154,0;	0,0;	0,0
290,4251403808594;	163,25;	0,0;	0,0
290,45635986328125;	160,75;	0,0;	0,0
290,4875183105469;	156,25;	0,0;	0,0
290,5186462402344;	170,0;	0,0;	0,0
290,5498046875;	147,0;	0,0;	0,0
290,5809326171875;	176,0;	0,0;	0,0
290,6120910644531;	167,75;	0,0;	0,0
290,6432189941406;	180,5;	0,0;	0,0
290,67431640625;	168,5;	0,0;	0,0
290,7054443359375;	200,5;	0,0;	0,0
290,7365417480469;	168,0;	0,0;	0,0
290,7676696777344;	176,25;	0,0;	0,0
290,79876708984375;	157,75;	0,0;	0,0
290,829833984375;	172,25;	0,0;	0,0
290,86090087890625;	175,75;	0,0;	0,0
290,8919677734375;	181,0;	0,0;	0,0
290,9230651855469;	187,0;	0,0;	0,0
290,9541015625;	157,25;	0,0;	0,0
290,9851379394531;	174,5;	0,0;	0,0
291,01617431640625;	172,25;	0,0;	0,0
291,0472106933594;	168,0;	0,0;	0,0
291,0782470703125;	153,0;	0,0;	0,0
291,1092529296875;	176,0;	0,0;	0,0
291,1402893066406;	197,25;	0,0;	0,0
291,1712646484375;	318,5;	0,0;	0,0
291,2022399902344;	313,5;	0,0;	0,0
291,2332458496094;	191,0;	0,0;	0,0
291,26422119140625;	162,5;	0,0;	0,0
291,2951965332031;	161,0;	0,0;	0,0
291,3261413574219;	134,25;	0,0;	0,0
291,35711669921875;	150,25;	0,0;	0,0
291,3880615234375;	176,5;	0,0;	0,0
291,4189758300781;	166,25;	0,0;	0,0
291,449951171875;	157,0;	0,0;	0,0
291,4808654785156;	169,5;	0,0;	0,0
291,5118103027344;	170,5;	0,0;	0,0
291,5426940917969;	158,25;	0,0;	0,0
291,5736083984375;	156,0;	0,0;	0,0
291,6044921875;	166,5;	0,0;	0,0
291,6353759765625;	174,25;	0,0;	0,0
291,6662902832031;	178,25;	0,0;	0,0
291,6971435546875;	183,5;	0,0;	0,0
291,7279968261719;	217,5;	0,0;	0,0
291,75885009765625;	248,25;	0,0;	0,0
291,7897033691406;	259,5;	0,0;	0,0
291,820556640625;	200,5;	0,0;	0,0
291,8514099121094;	172,25;	0,0;	0,0
291,8822021484375;	180,25;	0,0;	0,0
291,9130554199219;	170,5;	0,0;	0,0
291,9438781738281;	169,75;	0,0;	0,0
291,97467041015625;	174,25;	0,0;	0,0
292,0054626464844;	192,5;	0,0;	0,0
292,0362243652344;	196,0;	0,0;	0,0
292,0670471191406;	177,25;	0,0;	0,0
292,0978088378906;	173,75;	0,0;	0,0
292,1285705566406;	164,5;	0,0;	0,0
292,1593322753906;	186,75;	0,0;	0,0
292,1900939941406;	184,0;	0,0;	0,0
292,2208557128906;	205,5;	0,0;	0,0
292,2515563964844;	223,25;	0,0;	0,0
292,2823181152344;	264,75;	0,0;	0,0
292,31304931640625;	271,75;	0,0;	0,0
292,34375;	232,5;	0,0;	0,0
292,37445068359375;	215,75;	0,0;	0,0
292,4051818847656;	179,0;	0,0;	0,0
292,43585205078125;	171,75;	0,0;	0,0
292,466552734375;	184,75;	0,0;	0,0
292,49725341796875;	207,75;	0,0;	0,0
292,52789306640625;	194,75;	0,0;	0,0
292,5585632324219;	198,0;	0,0;	0,0
292,5892333984375;	260,75;	0,0;	0,0
292,6198425292969;	408,25;	0,0;	0,0
292,6505126953125;	353,75;	0,0;	0,0
292,68115234375;	192,75;	0,0;	0,0
292,7117919921875;	185,0;	0,0;	0,0
292,74237060546875;	166,75;	0,0;	0,0
292,7729797363281;	174,5;	0,0;	0,0
292,8035888671875;	192,25;	0,0;	0,0
292,83416748046875;	274,25;	0,0;	0,0
292,8647766113281;	436,0;	0,0;	0,0
292,8953552246094;	356,75;	0,0;	0,0
292,9259033203125;	220,25;	0,0;	0,0
292,95648193359375;	173,0;	0,0;	0,0
292,9870300292969;	164,5;	0,0;	0,0
293,0176086425781;	187,0;	0,0;	0,0
293,04815673828125;	156,75;	0,0;	0,0
293,0786437988281;	168,0;	0,0;	0,0
293,1092224121094;	167,5;	0,0;	0,0
293,1397399902344;	174,75;	0,0;	0,0
293,1702575683594;	161,0;	0,0;	0,0
293,20074462890625;	153,75;	0,0;	0,0
293,23126220703125;	175,0;	0,0;	0,0
293,2617492675781;	209,75;	0,0;	0,0
293,2922058105469;	193,25;	0,0;	0,0
293,32269287109375;	166,0;	0,0;	0,0
293,3531494140625;	175,75;	0,0;	0,0
293,3836364746094;	166,5;	0,0;	0,0
293,4140625;	184,75;	0,0;	0,0
293,44451904296875;	162,5;	0,0;	0,0
293,4749755859375;	165,5;	0,0;	0,0
293,50537109375;	168,25;	0,0;	0,0
293,53582763671875;	183,25;	0,0;	0,0
293,56622314453125;	186,25;	0,0;	0,0
293,5966491699219;	261,75;	0,0;	0,0
293,6270446777344;	444,75;	0,0;	0,0
293,65740966796875;	766,5;	0,0;	0,0
293,68780517578125;	479,5;	0,0;	0,0
293,7181701660156;	253,0;	0,0;	0,0
293,7485656738281;	210,25;	0,0;	0,0
293,7789001464844;	203,25;	0,0;	0,0
293,8092346191406;	189,75;	0,0;	0,0
293,839599609375;	194,75;	0,0;	0,0
293,86993408203125;	261,5;	0,0;	0,0
293,9002685546875;	301,0;	0,0;	0,0
293,93060302734375;	223,0;	0,0;	0,0
293,9609069824219;	191,25;	0,0;	0,0
293,9912109375;	190,75;	0,0;	0,0
294,0215148925781;	179,75;	0,0;	0,0
294,05181884765625;	205,0;	0,0;	0,0
294,08209228515625;	299,0;	0,0;	0,0
294,11236572265625;	305,5;	0,0;	0,0
294,14263916015625;	204,75;	0,0;	0,0
294,17291259765625;	175,25;	0,0;	0,0
294,2031555175781;	151,0;	0,0;	0,0
294,2333984375;	143,0;	0,0;	0,0
294,263671875;	174,25;	0,0;	0,0
294,29388427734375;	173,25;	0,0;	0,0
294,3240966796875;	185,0;	0,0;	0,0
294,3543395996094;	240,5;	0,0;	0,0
294,384521484375;	342,0;	0,0;	0,0
294,41473388671875;	455,0;	0,0;	0,0
294,4449157714844;	281,0;	0,0;	0,0
294,4751281738281;	200,0;	0,0;	0,0
294,5052795410156;	187,25;	0,0;	0,0
294,53546142578125;	171,0;	0,0;	0,0
294,5656433105469;	165,0;	0,0;	0,0
294,59576416015625;	168,0;	0,0;	0,0
294,6259460449219;	156,0;	0,0;	0,0
294,65606689453125;	211,0;	0,0;	0,0
294,6861877441406;	307,0;	0,0;	0,0
294,7163391113281;	575,5;	0,0;	0,0
294,7464294433594;	965,0;	0,0;	0,0
294,77655029296875;	684,5;	0,0;	0,0
294,806640625;	345,0;	0,0;	0,0
294,8367614746094;	290,5;	0,0;	0,0
294,8668518066406;	347,25;	0,0;	0,0
294,89691162109375;	382,0;	0,0;	0,0
294,927001953125;	271,75;	0,0;	0,0
294,9570617675781;	213,5;	0,0;	0,0
294,98712158203125;	224,75;	0,0;	0,0
295,0171813964844;	191,0;	0,0;	0,0
295,04718017578125;	195,5;	0,0;	0,0
295,0772399902344;	191,75;	0,0;	0,0
295,1072692871094;	162,25;	0,0;	0,0
295,1372985839844;	175,75;	0,0;	0,0
295,16729736328125;	165,5;	0,0;	0,0
295,1972961425781;	171,75;	0,0;	0,0
295,227294921875;	183,75;	0,0;	0,0
295,2572937011719;	199,5;	0,0;	0,0
295,2872619628906;	239,75;	0,0;	0,0
295,3172607421875;	402,75;	0,0;	0,0
295,3471984863281;	716,75;	0,0;	0,0
295,377197265625;	662,25;	0,0;	0,0
295,4071044921875;	298,75;	0,0;	0,0
295,43707275390625;	216,25;	0,0;	0,0
295,46697998046875;	183,25;	0,0;	0,0
295,4969482421875;	181,25;	0,0;	0,0
295,52685546875;	160,0;	0,0;	0,0
295,5567626953125;	177,75;	0,0;	0,0
295,586669921875;	151,5;	0,0;	0,0
295,6165466308594;	188,0;	0,0;	0,0
295,646484375;	202,0;	0,0;	0,0
295,6763000488281;	364,0;	0,0;	0,0
295,7061767578125;	530,75;	0,0;	0,0
295,736083984375;	333,75;	0,0;	0,0
295,76593017578125;	181,5;	0,0;	0,0
295,7957763671875;	179,5;	0,0;	0,0
295,82562255859375;	174,5;	0,0;	0,0
295,8554382324219;	171,25;	0,0;	0,0
295,8852844238281;	184,75;	0,0;	0,0
295,91510009765625;	241,75;	0,0;	0,0
295,9449157714844;	300,75;	0,0;	0,0
295,9747314453125;	310,75;	0,0;	0,0
296,0044860839844;	227,5;	0,0;	0,0
296,0343017578125;	193,25;	0,0;	0,0
296,0640869140625;	176,75;	0,0;	0,0
296,0938720703125;	147,25;	0,0;	0,0
296,1236267089844;	163,75;	0,0;	0,0
296,1533508300781;	160,25;	0,0;	0,0
296,1831359863281;	161,5;	0,0;	0,0
296,2128601074219;	183,25;	0,0;	0,0
296,24261474609375;	152,0;	0,0;	0,0
296,2723388671875;	162,75;	0,0;	0,0
296,30206298828125;	177,0;	0,0;	0,0
296,331787109375;	177,25;	0,0;	0,0
296,36151123046875;	193,0;	0,0;	0,0
296,3912048339844;	222,0;	0,0;	0,0
296,4208679199219;	245,25;	0,0;	0,0
296,4505615234375;	355,5;	0,0;	0,0
296,4802551269531;	531,5;	0,0;	0,0
296,5099182128906;	438,0;	0,0;	0,0
296,5395812988281;	262,5;	0,0;	0,0
296,5691833496094;	255,5;	0,0;	0,0
296,598876953125;	334,25;	0,0;	0,0
296,62847900390625;	649,75;	0,0;	0,0
296,6581115722656;	1048,5;	0,0;	0,0
296,687744140625;	719,25;	0,0;	0,0
296,71734619140625;	294,75;	0,0;	0,0
296,7469482421875;	185,0;	0,0;	0,0
296,77655029296875;	182,25;	0,0;	0,0
296,80615234375;	163,25;	0,0;	0,0
296,8357238769531;	194,0;	0,0;	0,0
296,8652648925781;	222,25;	0,0;	0,0
296,8948669433594;	347,5;	0,0;	0,0
296,9244079589844;	420,5;	0,0;	0,0
296,9539794921875;	527,5;	0,0;	0,0
296,9835205078125;	655,5;	0,0;	0,0
297,0130615234375;	433,0;	0,0;	0,0
297,0425720214844;	291,75;	0,0;	0,0
297,0721130371094;	185,75;	0,0;	0,0
297,1016540527344;	163,25;	0,0;	0,0
297,131103515625;	176,25;	0,0;	0,0
297,16064453125;	201,5;	0,0;	0,0
297,19012451171875;	209,75;	0,0;	0,0
297,2196044921875;	283,75;	0,0;	0,0
297,24908447265625;	539,5;	0,0;	0,0
297,2785339355469;	1190,5;	0,0;	0,0
297,3080139160156;	917,75;	0,0;	0,0
297,33746337890625;	355,75;	0,0;	0,0
297,3669128417969;	192,75;	0,0;	0,0
297,3963317871094;	167,25;	0,0;	0,0
297,4257507324219;	182,75;	0,0;	0,0
297,4551696777344;	186,25;	0,0;	0,0
297,4845886230469;	168,75;	0,0;	0,0
297,5140075683594;	173,75;	0,0;	0,0
297,54339599609375;	181,0;	0,0;	0,0
297,5727844238281;	204,25;	0,0;	0,0
297,6021728515625;	183,0;	0,0;	0,0
297,63153076171875;	183,75;	0,0;	0,0
297,6609191894531;	167,25;	0,0;	0,0
297,6902770996094;	152,5;	0,0;	0,0
297,7196044921875;	162,5;	0,0;	0,0
297,74896240234375;	167,5;	0,0;	0,0
297,7782897949219;	149,25;	0,0;	0,0
297,8076477050781;	171,5;	0,0;	0,0
297,8369445800781;	189,25;	0,0;	0,0
297,8662414550781;	182,25;	0,0;	0,0
297,89556884765625;	210,75;	0,0;	0,0
297,9248352050781;	199,5;	0,0;	0,0
297,95416259765625;	163,75;	0,0;	0,0
297,9834289550781;	185,5;	0,0;	0,0
298,0126953125;	196,5;	0,0;	0,0
298,0419616699219;	213,25;	0,0;	0,0
298,07122802734375;	248,75;	0,0;	0,0
298,1004943847656;	439,25;	0,0;	0,0
298,1297302246094;	434,25;	0,0;	0,0
298,1589660644531;	284,75;	0,0;	0,0
298,1882019042969;	225,5;	0,0;	0,0
298,2173767089844;	192,25;	0,0;	0,0
298,2466125488281;	218,0;	0,0;	0,0
298,27581787109375;	341,0;	0,0;	0,0
298,3050231933594;	680,75;	0,0;	0,0
298,3341979980469;	840,25;	0,0;	0,0
298,3634338378906;	499,5;	0,0;	0,0
298,392578125;	357,0;	0,0;	0,0
298,42169189453125;	537,0;	0,0;	0,0
298,4508972167969;	905,75;	0,0;	0,0
298,48004150390625;	669,0;	0,0;	0,0
298,5091857910156;	448,75;	0,0;	0,0
298,538330078125;	452,5;	0,0;	0,0
298,56744384765625;	280,0;	0,0;	0,0
298,5965576171875;	220,25;	0,0;	0,0
298,62567138671875;	236,5;	0,0;	0,0
298,65478515625;	223,75;	0,0;	0,0
298,6838684082031;	335,25;	0,0;	0,0
298,71295166015625;	293,5;	0,0;	0,0
298,7420349121094;	197,0;	0,0;	0,0
298,7711181640625;	172,75;	0,0;	0,0
298,8002014160156;	166,75;	0,0;	0,0
298,8292236328125;	177,0;	0,0;	0,0
298,8582763671875;	161,75;	0,0;	0,0
298,8873291015625;	159,0;	0,0;	0,0
298,9163513183594;	171,25;	0,0;	0,0
298,9454040527344;	171,25;	0,0;	0,0
298,9743957519531;	189,5;	0,0;	0,0
299,00341796875;	203,25;	0,0;	0,0
299,03240966796875;	200,0;	0,0;	0,0
299,0613708496094;	169,5;	0,0;	0,0
299,0904235839844;	179,5;	0,0;	0,0
299,119384765625;	186,75;	0,0;	0,0
299,1483459472656;	176,0;	0,0;	0,0
299,17730712890625;	167,5;	0,0;	0,0
299,20623779296875;	170,75;	0,0;	0,0
299,2351989746094;	153,25;	0,0;	0,0
299,2641296386719;	176,75;	0,0;	0,0
299,2930908203125;	173,0;	0,0;	0,0
299,3219909667969;	226,75;	0,0;	0,0
299,3509521484375;	270,75;	0,0;	0,0
299,3798522949219;	549,0;	0,0;	0,0
299,40875244140625;	941,25;	0,0;	0,0
299,4376220703125;	655,5;	0,0;	0,0
299,4665222167969;	255,75;	0,0;	0,0
299,4953918457031;	197,75;	0,0;	0,0
299,5242614746094;	180,0;	0,0;	0,0
299,5531005859375;	164,5;	0,0;	0,0
299,5820007324219;	176,25;	0,0;	0,0
299,6108093261719;	196,25;	0,0;	0,0
299,63970947265625;	177,75;	0,0;	0,0
299,66851806640625;	192,5;	0,0;	0,0
299,69732666015625;	176,75;	0,0;	0,0
299,72613525390625;	182,0;	0,0;	0,0
299,75494384765625;	170,0;	0,0;	0,0
299,78375244140625;	167,25;	0,0;	0,0
299,8125305175781;	181,75;	0,0;	0,0
299,84130859375;	215,75;	0,0;	0,0
299,8700866699219;	296,5;	0,0;	0,0
299,89886474609375;	557,5;	0,0;	0,0
299,9276428222656;	694,0;	0,0;	0,0
299,9563903808594;	447,25;	0,0;	0,0
299,9851379394531;	313,75;	0,0;	0,0
300,01385498046875;	458,75;	0,0;	0,0
300,0426025390625;	711,25;	0,0;	0,0
300,0713195800781;	811,5;	0,0;	0,0
300,10003662109375;	517,0;	0,0;	0,0
300,1287536621094;	230,25;	0,0;	0,0
300,1574401855469;	201,25;	0,0;	0,0
300,1861267089844;	254,5;	0,0;	0,0
300,2148132324219;	400,25;	0,0;	0,0
300,2434997558594;	535,5;	0,0;	0,0
300,2721862792969;	446,5;	0,0;	0,0
300,3008117675781;	268,0;	0,0;	0,0
300,3294982910156;	197,25;	0,0;	0,0
300,3581237792969;	168,0;	0,0;	0,0
300,3867492675781;	188,25;	0,0;	0,0
300,4153747558594;	168,25;	0,0;	0,0
300,4440002441406;	161,0;	0,0;	0,0
300,4726257324219;	181,0;	0,0;	0,0
300,5012512207031;	173,0;	0,0;	0,0
300,52978515625;	176,5;	0,0;	0,0
300,55841064453125;	176,0;	0,0;	0,0
300,5870056152344;	167,0;	0,0;	0,0
300,6155700683594;	192,5;	0,0;	0,0
300,6441345214844;	247,0;	0,0;	0,0
300,67266845703125;	370,75;	0,0;	0,0
300,7012634277344;	420,5;	0,0;	0,0
300,7297668457031;	360,0;	0,0;	0,0
300,75830078125;	525,75;	0,0;	0,0
300,786865234375;	666,0;	0,0;	0,0
300,8153381347656;	411,25;	0,0;	0,0
300,8438720703125;	269,75;	0,0;	0,0
300,87237548828125;	245,0;	0,0;	0,0
300,90087890625;	430,75;	0,0;	0,0
300,9293518066406;	523,5;	0,0;	0,0
300,95782470703125;	368,0;	0,0;	0,0
300,9862976074219;	184,25;	0,0;	0,0
301,0147705078125;	177,5;	0,0;	0,0
301,0432434082031;	172,75;	0,0;	0,0
301,0716552734375;	194,75;	0,0;	0,0
301,1001281738281;	219,5;	0,0;	0,0
301,1285705566406;	227,5;	0,0;	0,0
301,1569519042969;	216,25;	0,0;	0,0
301,1853942871094;	167,75;	0,0;	0,0
301,2137756347656;	172,75;	0,0;	0,0
301,2422180175781;	177,75;	0,0;	0,0
301,2705993652344;	151,75;	0,0;	0,0
301,2989807128906;	147,0;	0,0;	0,0
301,3273620605469;	168,75;	0,0;	0,0
301,355712890625;	150,75;	0,0;	0,0
301,38409423828125;	172,75;	0,0;	0,0
301,4124450683594;	176,25;	0,0;	0,0
301,4407958984375;	159,5;	0,0;	0,0
301,4691162109375;	164,75;	0,0;	0,0
301,4974365234375;	179,75;	0,0;	0,0
301,5257873535156;	189,25;	0,0;	0,0
301,5541076660156;	228,5;	0,0;	0,0
301,5824279785156;	250,75;	0,0;	0,0
301,6106872558594;	231,25;	0,0;	0,0
301,63897705078125;	185,75;	0,0;	0,0
301,66729736328125;	212,0;	0,0;	0,0
301,6955261230469;	277,25;	0,0;	0,0
301,7238464355469;	400,75;	0,0;	0,0
301,7520751953125;	376,5;	0,0;	0,0
301,78033447265625;	237,25;	0,0;	0,0
301,80859375;	214,5;	0,0;	0,0
301,8367919921875;	333,5;	0,0;	0,0
301,86505126953125;	414,25;	0,0;	0,0
301,89324951171875;	365,75;	0,0;	0,0
301,92144775390625;	279,0;	0,0;	0,0
301,9496765136719;	371,75;	0,0;	0,0
301,9778747558594;	615,75;	0,0;	0,0
302,0060729980469;	1474,0;	0,0;	0,0
302,03424072265625;	2170,25;	0,0;	0,0
302,06243896484375;	1834,5;	0,0;	0,0
302,0906066894531;	1169,75;	0,0;	0,0
302,11871337890625;	548,25;	0,0;	0,0
302,1468811035156;	263,0;	0,0;	0,0
302,1750183105469;	207,5;	0,0;	0,0
302,2031555175781;	185,75;	0,0;	0,0
302,2312927246094;	178,75;	0,0;	0,0
302,2593994140625;	172,5;	0,0;	0,0
302,28753662109375;	173,0;	0,0;	0,0
302,31561279296875;	204,75;	0,0;	0,0
302,3437194824219;	325,75;	0,0;	0,0
302,3717956542969;	407,25;	0,0;	0,0
302,39990234375;	320,75;	0,0;	0,0
302,4279479980469;	210,5;	0,0;	0,0
302,45599365234375;	209,75;	0,0;	0,0
302,48406982421875;	278,75;	0,0;	0,0
302,5120849609375;	552,5;	0,0;	0,0
302,5401611328125;	821,25;	0,0;	0,0
302,56817626953125;	730,25;	0,0;	0,0
302,59619140625;	483,75;	0,0;	0,0
302,6242370605469;	354,75;	0,0;	0,0
302,6522216796875;	231,25;	0,0;	0,0
302,68023681640625;	168,5;	0,0;	0,0
302,7082214355469;	151,0;	0,0;	0,0
302,7362060546875;	143,75;	0,0;	0,0
302,7641906738281;	156,25;	0,0;	0,0
302,7921447753906;	153,5;	0,0;	0,0
302,8200988769531;	165,25;	0,0;	0,0
302,8480529785156;	178,0;	0,0;	0,0
302,8760070800781;	175,75;	0,0;	0,0
302,9039306640625;	165,0;	0,0;	0,0
302,9318542480469;	223,75;	0,0;	0,0
302,95977783203125;	294,5;	0,0;	0,0
302,9876708984375;	311,5;	0,0;	0,0
303,0155944824219;	257,75;	0,0;	0,0
303,0434875488281;	241,5;	0,0;	0,0
303,0713806152344;	283,25;	0,0;	0,0
303,0992736816406;	358,75;	0,0;	0,0
303,12713623046875;	363,75;	0,0;	0,0
303,155029296875;	284,25;	0,0;	0,0
303,182861328125;	180,25;	0,0;	0,0
303,2107238769531;	155,5;	0,0;	0,0
303,238525390625;	157,25;	0,0;	0,0
303,2663879394531;	167,75;	0,0;	0,0
303,294189453125;	168,5;	0,0;	0,0
303,322021484375;	183,0;	0,0;	0,0
303,349853515625;	167,25;	0,0;	0,0
303,3776550292969;	164,0;	0,0;	0,0
303,4054260253906;	143,25;	0,0;	0,0
303,4332275390625;	167,25;	0,0;	0,0
303,4609680175781;	167,5;	0,0;	0,0
303,48876953125;	162,5;	0,0;	0,0
303,5165100097656;	159,5;	0,0;	0,0
303,54425048828125;	158,0;	0,0;	0,0
303,572021484375;	184,5;	0,0;	0,0
303,5997619628906;	177,25;	0,0;	0,0
303,62750244140625;	220,75;	0,0;	0,0
303,6551818847656;	298,75;	0,0;	0,0
303,6828918457031;	598,0;	0,0;	0,0
303,71063232421875;	843,75;	0,0;	0,0
303,7383117675781;	535,5;	0,0;	0,0
303,7660217285156;	257,75;	0,0;	0,0
303,7936706542969;	191,25;	0,0;	0,0
303,82135009765625;	161,5;	0,0;	0,0
303,8490295410156;	156,75;	0,0;	0,0
303,8766784667969;	163,25;	0,0;	0,0
303,90435791015625;	166,75;	0,0;	0,0
303,9319763183594;	164,5;	0,0;	0,0
303,9596252441406;	172,25;	0,0;	0,0
303,98724365234375;	249,25;	0,0;	0,0
304,014892578125;	300,5;	0,0;	0,0
304,04248046875;	238,75;	0,0;	0,0
304,070068359375;	203,25;	0,0;	0,0
304,0976867675781;	241,0;	0,0;	0,0
304,1252746582031;	369,0;	0,0;	0,0
304,1528625488281;	429,25;	0,0;	0,0
304,180419921875;	349,75;	0,0;	0,0
304,2079772949219;	300,0;	0,0;	0,0
304,23553466796875;	319,0;	0,0;	0,0
304,2630920410156;	265,5;	0,0;	0,0
304,2906188964844;	170,5;	0,0;	0,0
304,31817626953125;	169,75;	0,0;	0,0
304,3456726074219;	161,5;	0,0;	0,0
304,3731994628906;	181,0;	0,0;	0,0
304,4006652832031;	182,25;	0,0;	0,0
304,42822265625;	193,75;	0,0;	0,0
304,4556884765625;	162,75;	0,0;	0,0
304,483154296875;	176,75;	0,0;	0,0
304,5106506347656;	199,5;	0,0;	0,0
304,5381164550781;	174,5;	0,0;	0,0
304,5655822753906;	173,75;	0,0;	0,0
304,593017578125;	156,25;	0,0;	0,0
304,6204528808594;	178,75;	0,0;	0,0
304,6479187011719;	213,25;	0,0;	0,0
304,6753234863281;	311,75;	0,0;	0,0
304,7027587890625;	698,25;	0,0;	0,0
304,73016357421875;	918,0;	0,0;	0,0
304,757568359375;	559,75;	0,0;	0,0
304,78497314453125;	295,0;	0,0;	0,0
304,81231689453125;	183,75;	0,0;	0,0
304,8397216796875;	186,5;	0,0;	0,0
304,8670654296875;	167,5;	0,0;	0,0
304,89447021484375;	174,25;	0,0;	0,0
304,92181396484375;	166,0;	0,0;	0,0
304,9491882324219;	174,75;	0,0;	0,0
304,97650146484375;	157,25;	0,0;	0,0
305,0038146972656;	152,25;	0,0;	0,0
305,0311584472656;	180,5;	0,0;	0,0
305,0584716796875;	157,0;	0,0;	0,0
305,0857849121094;	173,25;	0,0;	0,0
305,1130676269531;	153,5;	0,0;	0,0
305,1403503417969;	169,5;	0,0;	0,0
305,1676330566406;	167,75;	0,0;	0,0
305,1949157714844;	186,0;	0,0;	0,0
305,22222900390625;	169,5;	0,0;	0,0
305,24945068359375;	166,25;	0,0;	0,0
305,27667236328125;	194,25;	0,0;	0,0
305,303955078125;	176,25;	0,0;	0,0
305,3311767578125;	161,5;	0,0;	0,0
305,3583984375;	185,75;	0,0;	0,0
305,3856201171875;	171,5;	0,0;	0,0
305,4128112792969;	170,0;	0,0;	0,0
305,4400329589844;	172,5;	0,0;	0,0
305,46722412109375;	215,25;	0,0;	0,0
305,4944152832031;	221,25;	0,0;	0,0
305,5215759277344;	202,25;	0,0;	0,0
305,54876708984375;	186,5;	0,0;	0,0
305,575927734375;	180,75;	0,0;	0,0
305,6030578613281;	168,5;	0,0;	0,0
305,6302490234375;	226,5;	0,0;	0,0
305,6573791503906;	289,5;	0,0;	0,0
305,6844787597656;	609,75;	0,0;	0,0
305,7116394042969;	920,75;	0,0;	0,0
305,73876953125;	611,25;	0,0;	0,0
305,7658386230469;	306,25;	0,0;	0,0
305,7929382324219;	230,25;	0,0;	0,0
305,820068359375;	305,75;	0,0;	0,0
305,84710693359375;	572,25;	0,0;	0,0
305,87420654296875;	903,5;	0,0;	0,0
305,9012756347656;	618,0;	0,0;	0,0
305,9283142089844;	275,0;	0,0;	0,0
305,95538330078125;	183,25;	0,0;	0,0
305,982421875;	171,0;	0,0;	0,0
306,00946044921875;	182,25;	0,0;	0,0
306,0364990234375;	171,5;	0,0;	0,0
306,0634765625;	173,0;	0,0;	0,0
306,09051513671875;	181,5;	0,0;	0,0
306,11749267578125;	180,0;	0,0;	0,0
306,14453125;	168,0;	0,0;	0,0
306,1714782714844;	199,25;	0,0;	0,0
306,1984558105469;	206,0;	0,0;	0,0
306,2254333496094;	188,75;	0,0;	0,0
306,25238037109375;	178,5;	0,0;	0,0
306,2793884277344;	146,5;	0,0;	0,0
306,3063049316406;	166,5;	0,0;	0,0
306,3332214355469;	165,0;	0,0;	0,0
306,36016845703125;	166,25;	0,0;	0,0
306,3870849609375;	177,25;	0,0;	0,0
306,4140319824219;	161,25;	0,0;	0,0
306,44091796875;	165,75;	0,0;	0,0
306,4678039550781;	176,0;	0,0;	0,0
306,49468994140625;	187,0;	0,0;	0,0
306,5215759277344;	179,5;	0,0;	0,0
306,5484619140625;	176,0;	0,0;	0,0
306,5753173828125;	203,75;	0,0;	0,0
306,6021728515625;	196,5;	0,0;	0,0
306,6290283203125;	242,0;	0,0;	0,0
306,6558837890625;	393,75;	0,0;	0,0
306,6827087402344;	667,0;	0,0;	0,0
306,7095031738281;	605,25;	0,0;	0,0
306,7363586425781;	312,75;	0,0;	0,0
306,7631530761719;	228,0;	0,0;	0,0
306,7899475097656;	200,75;	0,0;	0,0
306,8167724609375;	179,0;	0,0;	0,0
306,843505859375;	151,0;	0,0;	0,0
306,87030029296875;	161,25;	0,0;	0,0
306,8970642089844;	147,5;	0,0;	0,0
306,9238586425781;	172,25;	0,0;	0,0
306,9505920410156;	156,0;	0,0;	0,0
306,9773254394531;	165,0;	0,0;	0,0
307,00408935546875;	156,5;	0,0;	0,0
307,0307922363281;	140,25;	0,0;	0,0
307,0575256347656;	152,5;	0,0;	0,0
307,084228515625;	171,5;	0,0;	0,0
307,1109313964844;	168,5;	0,0;	0,0
307,13763427734375;	147,75;	0,0;	0,0
307,164306640625;	154,0;	0,0;	0,0
307,1910095214844;	154,75;	0,0;	0,0
307,2176818847656;	142,75;	0,0;	0,0
307,24432373046875;	150,75;	0,0;	0,0
307,27099609375;	160,25;	0,0;	0,0
307,2976379394531;	154,5;	0,0;	0,0
307,3243103027344;	163,75;	0,0;	0,0
307,35089111328125;	172,75;	0,0;	0,0
307,37750244140625;	170,25;	0,0;	0,0
307,4041442871094;	173,0;	0,0;	0,0
307,43072509765625;	168,75;	0,0;	0,0
307,4573669433594;	194,25;	0,0;	0,0
307,48394775390625;	233,25;	0,0;	0,0
307,510498046875;	393,5;	0,0;	0,0
307,5370788574219;	547,5;	0,0;	0,0
307,5636901855469;	418,25;	0,0;	0,0
307,5902404785156;	223,0;	0,0;	0,0
307,61676025390625;	194,5;	0,0;	0,0
307,643310546875;	174,25;	0,0;	0,0
307,6698303222656;	220,75;	0,0;	0,0
307,6963806152344;	238,0;	0,0;	0,0
307,722900390625;	193,5;	0,0;	0,0
307,7493896484375;	180,25;	0,0;	0,0
307,7759094238281;	179,5;	0,0;	0,0
307,8023986816406;	192,75;	0,0;	0,0
307,82891845703125;	192,0;	0,0;	0,0
307,8553466796875;	191,25;	0,0;	0,0
307,8818359375;	175,5;	0,0;	0,0
307,9082946777344;	166,75;	0,0;	0,0
307,93475341796875;	159,25;	0,0;	0,0
307,961181640625;	181,0;	0,0;	0,0
307,9876403808594;	162,0;	0,0;	0,0
308,0140380859375;	177,75;	0,0;	0,0
308,04046630859375;	170,75;	0,0;	0,0
308,0668640136719;	164,5;	0,0;	0,0
308,09332275390625;	172,5;	0,0;	0,0
308,11968994140625;	176,0;	0,0;	0,0
308,1460876464844;	201,75;	0,0;	0,0
308,1724548339844;	242,25;	0,0;	0,0
308,1988220214844;	238,75;	0,0;	0,0
308,2251892089844;	201,75;	0,0;	0,0
308,2515563964844;	170,0;	0,0;	0,0
308,27789306640625;	202,25;	0,0;	0,0
308,3042297363281;	296,0;	0,0;	0,0
308,33056640625;	406,25;	0,0;	0,0
308,3569030761719;	402,25;	0,0;	0,0
308,3832092285156;	229,5;	0,0;	0,0
308,40948486328125;	161,5;	0,0;	0,0
308,435791015625;	155,0;	0,0;	0,0
308,46209716796875;	162,5;	0,0;	0,0
308,4884033203125;	178,0;	0,0;	0,0
308,5146484375;	160,75;	0,0;	0,0
308,54095458984375;	163,25;	0,0;	0,0
308,56719970703125;	169,0;	0,0;	0,0
308,59344482421875;	147,25;	0,0;	0,0
308,61968994140625;	143,0;	0,0;	0,0
308,6458740234375;	167,25;	0,0;	0,0
308,6721496582031;	165,5;	0,0;	0,0
308,6983642578125;	154,0;	0,0;	0,0
308,72454833984375;	144,5;	0,0;	0,0
308,7507629394531;	172,0;	0,0;	0,0
308,77691650390625;	160,0;	0,0;	0,0
308,80316162109375;	153,75;	0,0;	0,0
308,8293151855469;	161,5;	0,0;	0,0
308,8554992675781;	166,25;	0,0;	0,0
308,88165283203125;	163,0;	0,0;	0,0
308,90777587890625;	166,5;	0,0;	0,0
308,9339294433594;	146,75;	0,0;	0,0
308,9600524902344;	158,25;	0,0;	0,0
308,9862060546875;	177,0;	0,0;	0,0
309,0123291015625;	160,5;	0,0;	0,0
309,0384216308594;	174,75;	0,0;	0,0
309,0645446777344;	186,25;	0,0;	0,0
309,0906066894531;	251,0;	0,0;	0,0
309,1167297363281;	307,0;	0,0;	0,0
309,1427917480469;	320,75;	0,0;	0,0
309,1688537597656;	225,25;	0,0;	0,0
309,1949462890625;	210,5;	0,0;	0,0
309,2209777832031;	327,5;	0,0;	0,0
309,2470397949219;	357,0;	0,0;	0,0
309,2730712890625;	286,75;	0,0;	0,0
309,299072265625;	221,0;	0,0;	0,0
309,3251037597656;	195,25;	0,0;	0,0
309,35113525390625;	184,75;	0,0;	0,0
309,37713623046875;	167,5;	0,0;	0,0
309,4031066894531;	156,25;	0,0;	0,0
309,42913818359375;	176,5;	0,0;	0,0
309,4551086425781;	179,0;	0,0;	0,0
309,4810791015625;	151,75;	0,0;	0,0
309,5070495605469;	172,25;	0,0;	0,0
309,5329895019531;	153,5;	0,0;	0,0
309,5589599609375;	155,25;	0,0;	0,0
309,5848693847656;	163,5;	0,0;	0,0
309,61083984375;	156,25;	0,0;	0,0
309,63671875;	169,5;	0,0;	0,0
309,66265869140625;	163,25;	0,0;	0,0
309,6885681152344;	164,0;	0,0;	0,0
309,7144470214844;	156,25;	0,0;	0,0
309,7403564453125;	172,5;	0,0;	0,0
309,7662048339844;	196,25;	0,0;	0,0
309,7920837402344;	190,5;	0,0;	0,0
309,8179626464844;	179,5;	0,0;	0,0
309,84381103515625;	179,5;	0,0;	0,0
309,86968994140625;	194,25;	0,0;	0,0
309,8955078125;	248,5;	0,0;	0,0
309,9213562011719;	333,75;	0,0;	0,0
309,9471740722656;	618,25;	0,0;	0,0
309,9729919433594;	790,75;	0,0;	0,0
309,9988098144531;	734,5;	0,0;	0,0
310,02459716796875;	651,25;	0,0;	0,0
310,0503845214844;	450,25;	0,0;	0,0
310,076171875;	283,0;	0,0;	0,0
310,10198974609375;	218,25;	0,0;	0,0
310,12774658203125;	201,25;	0,0;	0,0
310,1534729003906;	178,0;	0,0;	0,0
310,17919921875;	161,0;	0,0;	0,0
310,2049865722656;	152,0;	0,0;	0,0
310,2307434082031;	180,0;	0,0;	0,0
310,2564392089844;	157,5;	0,0;	0,0
310,28216552734375;	169,0;	0,0;	0,0
310,307861328125;	152,0;	0,0;	0,0
310,33355712890625;	164,5;	0,0;	0,0
310,3592834472656;	168,0;	0,0;	0,0
310,38494873046875;	164,75;	0,0;	0,0
310,4106140136719;	173,0;	0,0;	0,0
310,4363098144531;	153,0;	0,0;	0,0
310,4619445800781;	167,75;	0,0;	0,0
310,4876403808594;	152,5;	0,0;	0,0
310,51324462890625;	159,75;	0,0;	0,0
310,53887939453125;	169,5;	0,0;	0,0
310,56451416015625;	135,5;	0,0;	0,0
310,5901184082031;	148,75;	0,0;	0,0
310,6157531738281;	146,25;	0,0;	0,0
310,641357421875;	152,25;	0,0;	0,0
310,66693115234375;	156,75;	0,0;	0,0
310,6925354003906;	153,75;	0,0;	0,0
310,71807861328125;	149,75;	0,0;	0,0
310,7436828613281;	150,5;	0,0;	0,0
310,76922607421875;	166,5;	0,0;	0,0
310,7947692871094;	140,75;	0,0;	0,0
310,8203430175781;	153,25;	0,0;	0,0
310,84588623046875;	168,75;	0,0;	0,0
310,87139892578125;	156,75;	0,0;	0,0
310,89691162109375;	139,75;	0,0;	0,0
310,92242431640625;	146,75;	0,0;	0,0
310,9479675292969;	141,0;	0,0;	0,0
310,9734802246094;	164,25;	0,0;	0,0
310,9989318847656;	174,75;	0,0;	0,0
311,0244140625;	165,75;	0,0;	0,0
311,0498352050781;	159,25;	0,0;	0,0
311,0753479003906;	167,0;	0,0;	0,0
311,100830078125;	174,5;	0,0;	0,0
311,1262512207031;	166,75;	0,0;	0,0
311,15167236328125;	155,75;	0,0;	0,0
311,1771240234375;	162,0;	0,0;	0,0
311,2025146484375;	163,0;	0,0;	0,0
311,2279357910156;	150,75;	0,0;	0,0
311,25335693359375;	157,25;	0,0;	0,0
311,27874755859375;	166,25;	0,0;	0,0
311,30413818359375;	156,5;	0,0;	0,0
311,3294982910156;	159,5;	0,0;	0,0
311,3548889160156;	152,75;	0,0;	0,0
311,3802490234375;	169,0;	0,0;	0,0
311,40557861328125;	158,5;	0,0;	0,0
311,43096923828125;	181,75;	0,0;	0,0
311,456298828125;	166,25;	0,0;	0,0
311,4816589355469;	144,75;	0,0;	0,0
311,5069274902344;	172,0;	0,0;	0,0
311,5322570800781;	159,25;	0,0;	0,0
311,55755615234375;	158,75;	0,0;	0,0
311,5828552246094;	196,0;	0,0;	0,0
311,608154296875;	196,75;	0,0;	0,0
311,6334533691406;	207,0;	0,0;	0,0
311,65869140625;	191,5;	0,0;	0,0
311,6839904785156;	158,25;	0,0;	0,0
311,709228515625;	170,0;	0,0;	0,0
311,7344970703125;	156,25;	0,0;	0,0
311,75970458984375;	163,0;	0,0;	0,0
311,7849426269531;	156,75;	0,0;	0,0
311,8101806640625;	152,5;	0,0;	0,0
311,8354187011719;	146,5;	0,0;	0,0
311,8606262207031;	166,5;	0,0;	0,0
311,88580322265625;	178,0;	0,0;	0,0
311,9110107421875;	167,25;	0,0;	0,0
311,9361572265625;	180,25;	0,0;	0,0
311,96136474609375;	176,75;	0,0;	0,0
311,98651123046875;	161,75;	0,0;	0,0
312,01165771484375;	180,5;	0,0;	0,0
312,0368347167969;	185,5;	0,0;	0,0
312,06195068359375;	163,0;	0,0;	0,0
312,08709716796875;	154,75;	0,0;	0,0
312,1122131347656;	158,75;	0,0;	0,0
312,1373291015625;	154,75;	0,0;	0,0
312,1624450683594;	166,25;	0,0;	0,0
312,1875305175781;	162,0;	0,0;	0,0
312,212646484375;	149,25;	0,0;	0,0
312,2377014160156;	150,25;	0,0;	0,0
312,2627868652344;	158,75;	0,0;	0,0
312,2878723144531;	164,0;	0,0;	0,0
312,3128967285156;	166,5;	0,0;	0,0
312,3379821777344;	161,0;	0,0;	0,0
312,3630065917969;	146,0;	0,0;	0,0
312,3880310058594;	159,25;	0,0;	0,0
312,4130554199219;	168,5;	0,0;	0,0
312,4380798339844;	172,25;	0,0;	0,0
312,4631042480469;	175,0;	0,0;	0,0
312,48809814453125;	206,0;	0,0;	0,0
312,5130615234375;	227,0;	0,0;	0,0
312,5380859375;	254,25;	0,0;	0,0
312,56304931640625;	218,0;	0,0;	0,0
312,5880126953125;	211,5;	0,0;	0,0
312,6129455566406;	170,0;	0,0;	0,0
312,6379089355469;	162,5;	0,0;	0,0
312,662841796875;	158,5;	0,0;	0,0
312,68780517578125;	163,0;	0,0;	0,0
312,71270751953125;	155,25;	0,0;	0,0
312,73760986328125;	164,0;	0,0;	0,0
312,7625427246094;	151,25;	0,0;	0,0
312,7874450683594;	141,75;	0,0;	0,0
312,8123474121094;	151,0;	0,0;	0,0
312,83721923828125;	149,5;	0,0;	0,0
312,862060546875;	166,0;	0,0;	0,0
312,886962890625;	158,0;	0,0;	0,0
312,91180419921875;	163,75;	0,0;	0,0
312,9366760253906;	149,0;	0,0;	0,0
312,9615173339844;	152,25;	0,0;	0,0
312,9862976074219;	142,5;	0,0;	0,0
313,01116943359375;	167,5;	0,0;	0,0
313,0359802246094;	152,25;	0,0;	0,0
313,060791015625;	157,5;	0,0;	0,0
313,0855712890625;	143,5;	0,0;	0,0
313,1103820800781;	148,75;	0,0;	0,0
313,1351623535156;	154,25;	0,0;	0,0
313,159912109375;	165,5;	0,0;	0,0
313,1846923828125;	169,25;	0,0;	0,0
313,2094421386719;	172,75;	0,0;	0,0
313,23419189453125;	193,75;	0,0;	0,0
313,2589416503906;	193,0;	0,0;	0,0
313,2836608886719;	166,25;	0,0;	0,0
313,30841064453125;	170,5;	0,0;	0,0
313,3331298828125;	171,25;	0,0;	0,0
313,3578186035156;	197,75;	0,0;	0,0
313,3825378417969;	225,0;	0,0;	0,0
313,4071960449219;	184,0;	0,0;	0,0
313,4319152832031;	173,75;	0,0;	0,0
313,4565734863281;	172,5;	0,0;	0,0
313,4812316894531;	176,75;	0,0;	0,0
313,50592041015625;	188,5;	0,0;	0,0
313,53057861328125;	190,5;	0,0;	0,0
313,5552062988281;	167,25;	0,0;	0,0
313,579833984375;	155,75;	0,0;	0,0
313,6044616699219;	167,75;	0,0;	0,0
313,62908935546875;	145,75;	0,0;	0,0
313,6537170410156;	171,25;	0,0;	0,0
313,67828369140625;	150,0;	0,0;	0,0
313,7028503417969;	156,75;	0,0;	0,0
313,72747802734375;	154,25;	0,0;	0,0
313,75201416015625;	158,25;	0,0;	0,0
313,776611328125;	150,5;	0,0;	0,0
313,8011474609375;	143,5;	0,0;	0,0
313,8257141113281;	153,25;	0,0;	0,0
313,8502502441406;	152,5;	0,0;	0,0
313,8747863769531;	141,5;	0,0;	0,0
313,8993225097656;	150,25;	0,0;	0,0
313,923828125;	148,25;	0,0;	0,0
313,94830322265625;	162,5;	0,0;	0,0
313,97283935546875;	167,75;	0,0;	0,0
313,997314453125;	180,25;	0,0;	0,0
314,0218200683594;	172,0;	0,0;	0,0
314,0462646484375;	178,5;	0,0;	0,0
314,07073974609375;	152,75;	0,0;	0,0
314,09521484375;	167,25;	0,0;	0,0
314,11962890625;	158,5;	0,0;	0,0
314,14410400390625;	161,5;	0,0;	0,0
314,16851806640625;	156,25;	0,0;	0,0
314,19293212890625;	174,25;	0,0;	0,0
314,21734619140625;	189,0;	0,0;	0,0
314,24176025390625;	181,75;	0,0;	0,0
314,26617431640625;	189,75;	0,0;	0,0
314,2905578613281;	169,5;	0,0;	0,0
314,31494140625;	175,5;	0,0;	0,0
314,33929443359375;	189,0;	0,0;	0,0
314,3636779785156;	189,75;	0,0;	0,0
314,3880310058594;	210,75;	0,0;	0,0
314,4123840332031;	185,75;	0,0;	0,0
314,4367370605469;	186,75;	0,0;	0,0
314,4610595703125;	178,0;	0,0;	0,0
314,4853820800781;	170,75;	0,0;	0,0
314,5096740722656;	167,25;	0,0;	0,0
314,53399658203125;	170,75;	0,0;	0,0
314,5583190917969;	168,25;	0,0;	0,0
314,58258056640625;	153,5;	0,0;	0,0
314,60687255859375;	138,25;	0,0;	0,0
314,6311340332031;	154,5;	0,0;	0,0
314,6553955078125;	154,75;	0,0;	0,0
314,6796569824219;	150,5;	0,0;	0,0
314,70391845703125;	146,75;	0,0;	0,0
314,7281799316406;	161,0;	0,0;	0,0
314,75238037109375;	165,25;	0,0;	0,0
314,7765808105469;	166,25;	0,0;	0,0
314,8008117675781;	157,25;	0,0;	0,0
314,82501220703125;	170,25;	0,0;	0,0
314,8492126464844;	160,5;	0,0;	0,0
314,8734130859375;	165,0;	0,0;	0,0
314,8975830078125;	152,5;	0,0;	0,0
314,9217529296875;	151,5;	0,0;	0,0
314,9459228515625;	140,0;	0,0;	0,0
314,9700927734375;	185,75;	0,0;	0,0
314,9942321777344;	153,0;	0,0;	0,0
315,0183410644531;	157,75;	0,0;	0,0
315,0425109863281;	182,25;	0,0;	0,0
315,06658935546875;	186,0;	0,0;	0,0
315,0907287597656;	199,25;	0,0;	0,0
315,1148376464844;	199,0;	0,0;	0,0
315,138916015625;	189,25;	0,0;	0,0
315,16302490234375;	170,0;	0,0;	0,0
315,1871032714844;	169,5;	0,0;	0,0
315,2111511230469;	161,0;	0,0;	0,0
315,2352294921875;	173,5;	0,0;	0,0
315,2593078613281;	179,0;	0,0;	0,0
315,2833251953125;	198,0;	0,0;	0,0
315,3074035644531;	189,25;	0,0;	0,0
315,3314208984375;	197,5;	0,0;	0,0
315,35540771484375;	227,75;	0,0;	0,0
315,3794250488281;	263,0;	0,0;	0,0
315,4034118652344;	240,5;	0,0;	0,0
315,4274597167969;	213,0;	0,0;	0,0
315,451416015625;	164,75;	0,0;	0,0
315,4753723144531;	168,75;	0,0;	0,0
315,4993591308594;	172,5;	0,0;	0,0
315,5233154296875;	163,25;	0,0;	0,0
315,54730224609375;	155,0;	0,0;	0,0
315,57122802734375;	173,25;	0,0;	0,0
315,59515380859375;	202,75;	0,0;	0,0
315,6191101074219;	0,0;	0,0;	0,0
