-0.5	2.0
Integration time [ms]:	1.05
Averaging Nr. [scans]:1
Smoothing Nr. [pixels]:0
Data measured with spectrometer [name]:b'1703278U8'
Wave	;Sample	;Dark	;Reference	;Scope	
[nm]	;[counts]	;[counts]	;[counts]	
 
619,9722900390625;	349,0;	0,0;	0,0
620,0406494140625;	322,25;	0,0;	0,0
620,1089477539062;	339,0;	0,0;	0,0
620,17724609375;	348,25;	0,0;	0,0
620,2455444335938;	353,0;	0,0;	0,0
620,3137817382812;	333,0;	0,0;	0,0
620,382080078125;	336,0;	0,0;	0,0
620,4503173828125;	374,5;	0,0;	0,0
620,5185546875;	358,5;	0,0;	0,0
620,5867919921875;	327,5;	0,0;	0,0
620,6549072265625;	346,0;	0,0;	0,0
620,72314453125;	372,0;	0,0;	0,0
620,7913208007812;	370,75;	0,0;	0,0
620,8594360351562;	336,25;	0,0;	0,0
620,9276123046875;	394,25;	0,0;	0,0
620,9957885742188;	374,0;	0,0;	0,0
621,0638427734375;	387,5;	0,0;	0,0
621,1319580078125;	384,75;	0,0;	0,0
621,2000732421875;	368,0;	0,0;	0,0
621,2681274414062;	401,5;	0,0;	0,0
621,336181640625;	391,0;	0,0;	0,0
621,404296875;	403,25;	0,0;	0,0
621,4722900390625;	374,75;	0,0;	0,0
621,540283203125;	417,0;	0,0;	0,0
621,6083374023438;	380,75;	0,0;	0,0
621,67626953125;	400,5;	0,0;	0,0
621,7442626953125;	397,5;	0,0;	0,0
621,812255859375;	423,75;	0,0;	0,0
621,8801879882812;	417,5;	0,0;	0,0
621,9481201171875;	486,25;	0,0;	0,0
622,0159912109375;	456,25;	0,0;	0,0
622,0839233398438;	409,25;	0,0;	0,0
622,15185546875;	426,25;	0,0;	0,0
622,2196655273438;	441,25;	0,0;	0,0
622,2875366210938;	445,5;	0,0;	0,0
622,3554077148438;	412,5;	0,0;	0,0
622,4232177734375;	414,5;	0,0;	0,0
622,4910278320312;	456,0;	0,0;	0,0
622,5588989257812;	473,0;	0,0;	0,0
622,6266479492188;	478,25;	0,0;	0,0
622,6943969726562;	459,75;	0,0;	0,0
622,76220703125;	473,75;	0,0;	0,0
622,8298950195312;	460,0;	0,0;	0,0
622,8976440429688;	497,5;	0,0;	0,0
622,9653930664062;	567,5;	0,0;	0,0
623,0330810546875;	653,75;	0,0;	0,0
623,1007080078125;	803,25;	0,0;	0,0
623,1683349609375;	766,5;	0,0;	0,0
623,2360229492188;	537,25;	0,0;	0,0
623,3037109375;	529,75;	0,0;	0,0
623,3712768554688;	528,75;	0,0;	0,0
623,43896484375;	488,0;	0,0;	0,0
623,506591796875;	483,25;	0,0;	0,0
623,5740966796875;	470,0;	0,0;	0,0
623,6417236328125;	451,75;	0,0;	0,0
623,7092895507812;	452,75;	0,0;	0,0
623,7767944335938;	481,0;	0,0;	0,0
623,8443603515625;	480,0;	0,0;	0,0
623,9119262695312;	491,0;	0,0;	0,0
623,9793701171875;	458,25;	0,0;	0,0
624,046875;	471,25;	0,0;	0,0
624,1143798828125;	446,0;	0,0;	0,0
624,1818237304688;	456,0;	0,0;	0,0
624,249267578125;	482,0;	0,0;	0,0
624,316650390625;	470,5;	0,0;	0,0
624,3840942382812;	472,5;	0,0;	0,0
624,4515380859375;	505,5;	0,0;	0,0
624,518798828125;	500,0;	0,0;	0,0
624,5862426757812;	517,0;	0,0;	0,0
624,6536254882812;	604,75;	0,0;	0,0
624,7208862304688;	584,25;	0,0;	0,0
624,7882690429688;	497,25;	0,0;	0,0
624,8555908203125;	474,5;	0,0;	0,0
624,9228515625;	470,5;	0,0;	0,0
624,9901733398438;	483,25;	0,0;	0,0
625,0574951171875;	504,0;	0,0;	0,0
625,1246948242188;	518,0;	0,0;	0,0
625,1919555664062;	483,25;	0,0;	0,0
625,2592163085938;	583,75;	0,0;	0,0
625,3263549804688;	624,0;	0,0;	0,0
625,3936157226562;	529,0;	0,0;	0,0
625,4608154296875;	515,5;	0,0;	0,0
625,5279541015625;	487,5;	0,0;	0,0
625,5950927734375;	483,75;	0,0;	0,0
625,6622314453125;	448,5;	0,0;	0,0
625,7293701171875;	500,5;	0,0;	0,0
625,7965087890625;	506,25;	0,0;	0,0
625,8635864257812;	475,25;	0,0;	0,0
625,9306640625;	505,25;	0,0;	0,0
625,9977416992188;	469,25;	0,0;	0,0
626,0647583007812;	477,25;	0,0;	0,0
626,1318359375;	453,5;	0,0;	0,0
626,1989135742188;	425,5;	0,0;	0,0
626,265869140625;	467,5;	0,0;	0,0
626,3328857421875;	456,5;	0,0;	0,0
626,39990234375;	473,0;	0,0;	0,0
626,466796875;	489,75;	0,0;	0,0
626,5338134765625;	491,25;	0,0;	0,0
626,6007690429688;	432,25;	0,0;	0,0
626,6676635742188;	450,75;	0,0;	0,0
626,734619140625;	442,0;	0,0;	0,0
626,8014526367188;	427,75;	0,0;	0,0
626,8683471679688;	430,5;	0,0;	0,0
626,9352416992188;	422,5;	0,0;	0,0
627,0020141601562;	445,25;	0,0;	0,0
627,0689086914062;	456,0;	0,0;	0,0
627,1357421875;	412,75;	0,0;	0,0
627,2025756835938;	433,75;	0,0;	0,0
627,2694091796875;	431,25;	0,0;	0,0
627,3361206054688;	412,0;	0,0;	0,0
627,4028930664062;	430,0;	0,0;	0,0
627,4696655273438;	453,75;	0,0;	0,0
627,5364379882812;	410,75;	0,0;	0,0
627,6031494140625;	436,0;	0,0;	0,0
627,6697998046875;	437,0;	0,0;	0,0
627,7365112304688;	435,0;	0,0;	0,0
627,8031616210938;	394,75;	0,0;	0,0
627,869873046875;	422,25;	0,0;	0,0
627,9365234375;	395,5;	0,0;	0,0
628,0031127929688;	426,0;	0,0;	0,0
628,0697631835938;	440,5;	0,0;	0,0
628,1363525390625;	391,75;	0,0;	0,0
628,2030029296875;	403,5;	0,0;	0,0
628,26953125;	406,25;	0,0;	0,0
628,3361206054688;	409,5;	0,0;	0,0
628,4026489257812;	394,25;	0,0;	0,0
628,46923828125;	439,25;	0,0;	0,0
628,5357055664062;	404,25;	0,0;	0,0
628,6022338867188;	383,5;	0,0;	0,0
628,6687622070312;	421,25;	0,0;	0,0
628,7352294921875;	407,5;	0,0;	0,0
628,8016357421875;	399,0;	0,0;	0,0
628,8681640625;	401,0;	0,0;	0,0
628,9345703125;	396,25;	0,0;	0,0
629,0010375976562;	416,0;	0,0;	0,0
629,0673217773438;	419,75;	0,0;	0,0
629,1337890625;	401,0;	0,0;	0,0
629,2001953125;	386,0;	0,0;	0,0
629,2664794921875;	405,0;	0,0;	0,0
629,3328247070312;	384,5;	0,0;	0,0
629,3992309570312;	380,25;	0,0;	0,0
629,4655151367188;	406,0;	0,0;	0,0
629,5317993164062;	390,0;	0,0;	0,0
629,59814453125;	394,5;	0,0;	0,0
629,6643676757812;	400,25;	0,0;	0,0
629,7306518554688;	389,0;	0,0;	0,0
629,7969360351562;	433,5;	0,0;	0,0
629,8631591796875;	415,0;	0,0;	0,0
629,9293212890625;	407,75;	0,0;	0,0
629,9955444335938;	403,0;	0,0;	0,0
630,061767578125;	417,0;	0,0;	0,0
630,1278686523438;	492,75;	0,0;	0,0
630,194091796875;	579,0;	0,0;	0,0
630,26025390625;	542,25;	0,0;	0,0
630,3263549804688;	419,5;	0,0;	0,0
630,3924560546875;	395,0;	0,0;	0,0
630,45849609375;	360,75;	0,0;	0,0
630,524658203125;	376,0;	0,0;	0,0
630,5906982421875;	408,5;	0,0;	0,0
630,65673828125;	383,75;	0,0;	0,0
630,7228393554688;	396,0;	0,0;	0,0
630,7888793945312;	377,25;	0,0;	0,0
630,8548583984375;	370,5;	0,0;	0,0
630,9208984375;	384,75;	0,0;	0,0
630,98681640625;	398,25;	0,0;	0,0
631,0527954101562;	382,0;	0,0;	0,0
631,1187744140625;	405,5;	0,0;	0,0
631,1846923828125;	390,75;	0,0;	0,0
631,2506713867188;	386,75;	0,0;	0,0
631,3165893554688;	368,5;	0,0;	0,0
631,3824462890625;	384,0;	0,0;	0,0
631,4483032226562;	386,25;	0,0;	0,0
631,51416015625;	376,75;	0,0;	0,0
631,5800170898438;	419,75;	0,0;	0,0
631,6459350585938;	410,75;	0,0;	0,0
631,711669921875;	399,5;	0,0;	0,0
631,7775268554688;	385,5;	0,0;	0,0
631,8433227539062;	431,75;	0,0;	0,0
631,9090576171875;	443,25;	0,0;	0,0
631,974853515625;	379,25;	0,0;	0,0
632,0406494140625;	372,25;	0,0;	0,0
632,1063232421875;	356,75;	0,0;	0,0
632,1720581054688;	378,75;	0,0;	0,0
632,23779296875;	386,0;	0,0;	0,0
632,303466796875;	378,5;	0,0;	0,0
632,369140625;	391,0;	0,0;	0,0
632,4348754882812;	386,75;	0,0;	0,0
632,5004272460938;	372,25;	0,0;	0,0
632,5661010742188;	373,5;	0,0;	0,0
632,6317138671875;	354,25;	0,0;	0,0
632,6973266601562;	339,0;	0,0;	0,0
632,762939453125;	368,75;	0,0;	0,0
632,8284912109375;	381,0;	0,0;	0,0
632,89404296875;	373,25;	0,0;	0,0
632,9595947265625;	376,5;	0,0;	0,0
633,025146484375;	380,0;	0,0;	0,0
633,0906372070312;	388,25;	0,0;	0,0
633,1561889648438;	365,5;	0,0;	0,0
633,2216186523438;	354,5;	0,0;	0,0
633,287109375;	367,75;	0,0;	0,0
633,3526000976562;	396,0;	0,0;	0,0
633,4180297851562;	397,0;	0,0;	0,0
633,4835205078125;	393,25;	0,0;	0,0
633,5488891601562;	413,25;	0,0;	0,0
633,6142578125;	441,25;	0,0;	0,0
633,6796875;	440,5;	0,0;	0,0
633,7450561523438;	489,5;	0,0;	0,0
633,8103637695312;	422,0;	0,0;	0,0
633,8757934570312;	385,0;	0,0;	0,0
633,9410400390625;	367,0;	0,0;	0,0
634,00634765625;	377,25;	0,0;	0,0
634,0717163085938;	386,25;	0,0;	0,0
634,136962890625;	353,5;	0,0;	0,0
634,2022094726562;	382,5;	0,0;	0,0
634,2675170898438;	376,5;	0,0;	0,0
634,3327026367188;	356,5;	0,0;	0,0
634,39794921875;	359,5;	0,0;	0,0
634,4631958007812;	385,75;	0,0;	0,0
634,5283813476562;	368,75;	0,0;	0,0
634,5935668945312;	367,75;	0,0;	0,0
634,6587524414062;	372,25;	0,0;	0,0
634,7238159179688;	370,25;	0,0;	0,0
634,7890014648438;	359,25;	0,0;	0,0
634,8541870117188;	384,25;	0,0;	0,0
634,919189453125;	355,25;	0,0;	0,0
634,9843139648438;	356,5;	0,0;	0,0
635,0493774414062;	368,5;	0,0;	0,0
635,114501953125;	352,0;	0,0;	0,0
635,1795654296875;	337,0;	0,0;	0,0
635,2445068359375;	356,5;	0,0;	0,0
635,3095703125;	377,25;	0,0;	0,0
635,3746337890625;	353,25;	0,0;	0,0
635,4395751953125;	364,5;	0,0;	0,0
635,5045776367188;	354,5;	0,0;	0,0
635,5695190429688;	370,25;	0,0;	0,0
635,6344604492188;	379,0;	0,0;	0,0
635,6994018554688;	372,0;	0,0;	0,0
635,7642822265625;	344,75;	0,0;	0,0
635,8292236328125;	372,75;	0,0;	0,0
635,8941040039062;	374,5;	0,0;	0,0
635,9590454101562;	361,5;	0,0;	0,0
636,0238037109375;	354,5;	0,0;	0,0
636,0886840820312;	369,25;	0,0;	0,0
636,1535034179688;	340,25;	0,0;	0,0
636,2183227539062;	385,25;	0,0;	0,0
636,2831420898438;	371,75;	0,0;	0,0
636,3478393554688;	368,75;	0,0;	0,0
636,4126586914062;	369,0;	0,0;	0,0
636,4774169921875;	360,0;	0,0;	0,0
636,5421142578125;	357,5;	0,0;	0,0
636,60693359375;	386,25;	0,0;	0,0
636,6716918945312;	341,75;	0,0;	0,0
636,736328125;	357,5;	0,0;	0,0
636,801025390625;	334,5;	0,0;	0,0
636,86572265625;	344,75;	0,0;	0,0
636,9302978515625;	350,0;	0,0;	0,0
636,9949951171875;	340,75;	0,0;	0,0
637,0596313476562;	361,25;	0,0;	0,0
637,1242065429688;	352,25;	0,0;	0,0
637,1888427734375;	326,25;	0,0;	0,0
637,2533569335938;	334,0;	0,0;	0,0
637,31787109375;	326,25;	0,0;	0,0
637,3824462890625;	352,5;	0,0;	0,0
637,4469604492188;	334,5;	0,0;	0,0
637,5115356445312;	352,0;	0,0;	0,0
637,5760498046875;	375,0;	0,0;	0,0
637,6405029296875;	375,0;	0,0;	0,0
637,7050170898438;	338,25;	0,0;	0,0
637,7694702148438;	352,25;	0,0;	0,0
637,8339233398438;	346,5;	0,0;	0,0
637,8983764648438;	357,0;	0,0;	0,0
637,9627685546875;	331,5;	0,0;	0,0
638,027099609375;	352,5;	0,0;	0,0
638,091552734375;	365,0;	0,0;	0,0
638,1559448242188;	341,75;	0,0;	0,0
638,2202758789062;	354,0;	0,0;	0,0
638,28466796875;	349,75;	0,0;	0,0
638,3489990234375;	355,25;	0,0;	0,0
638,4132690429688;	353,5;	0,0;	0,0
638,4776000976562;	354,25;	0,0;	0,0
638,5418701171875;	357,5;	0,0;	0,0
638,6061401367188;	349,25;	0,0;	0,0
638,6703491210938;	353,5;	0,0;	0,0
638,7345581054688;	362,75;	0,0;	0,0
638,798828125;	350,0;	0,0;	0,0
638,8630981445312;	342,25;	0,0;	0,0
638,9271850585938;	322,5;	0,0;	0,0
638,9913940429688;	320,25;	0,0;	0,0
639,0556030273438;	335,25;	0,0;	0,0
639,1197509765625;	352,5;	0,0;	0,0
639,1838989257812;	353,5;	0,0;	0,0
639,248046875;	356,25;	0,0;	0,0
639,3121337890625;	426,5;	0,0;	0,0
639,376220703125;	539,0;	0,0;	0,0
639,4403076171875;	546,75;	0,0;	0,0
639,5043334960938;	365,75;	0,0;	0,0
639,568359375;	348,5;	0,0;	0,0
639,6324462890625;	335,25;	0,0;	0,0
639,6964721679688;	353,0;	0,0;	0,0
639,7604370117188;	331,25;	0,0;	0,0
639,8244018554688;	350,25;	0,0;	0,0
639,888427734375;	392,25;	0,0;	0,0
639,952392578125;	485,0;	0,0;	0,0
640,0162963867188;	699,0;	0,0;	0,0
640,0802612304688;	725,0;	0,0;	0,0
640,1442260742188;	429,5;	0,0;	0,0
640,2080078125;	340,5;	0,0;	0,0
640,27197265625;	331,0;	0,0;	0,0
640,3358154296875;	320,5;	0,0;	0,0
640,399658203125;	324,5;	0,0;	0,0
640,4635620117188;	319,75;	0,0;	0,0
640,52734375;	320,75;	0,0;	0,0
640,5911865234375;	342,0;	0,0;	0,0
640,6549682617188;	343,75;	0,0;	0,0
640,7188110351562;	339,75;	0,0;	0,0
640,782470703125;	399,25;	0,0;	0,0
640,8462524414062;	401,25;	0,0;	0,0
640,9099731445312;	391,5;	0,0;	0,0
640,9736938476562;	370,25;	0,0;	0,0
641,0374755859375;	379,25;	0,0;	0,0
641,10107421875;	394,0;	0,0;	0,0
641,164794921875;	491,0;	0,0;	0,0
641,2284545898438;	545,75;	0,0;	0,0
641,2920532226562;	399,5;	0,0;	0,0
641,3557739257812;	344,5;	0,0;	0,0
641,4193725585938;	338,5;	0,0;	0,0
641,4829711914062;	350,5;	0,0;	0,0
641,5465698242188;	332,25;	0,0;	0,0
641,610107421875;	312,25;	0,0;	0,0
641,6737060546875;	307,75;	0,0;	0,0
641,7372436523438;	332,75;	0,0;	0,0
641,80078125;	334,75;	0,0;	0,0
641,8642578125;	337,0;	0,0;	0,0
641,9277954101562;	362,5;	0,0;	0,0
641,9912109375;	384,25;	0,0;	0,0
642,0546875;	415,75;	0,0;	0,0
642,1182250976562;	454,75;	0,0;	0,0
642,1815795898438;	440,5;	0,0;	0,0
642,2450561523438;	360,25;	0,0;	0,0
642,3084716796875;	318,5;	0,0;	0,0
642,371826171875;	336,75;	0,0;	0,0
642,4352416992188;	340,75;	0,0;	0,0
642,4985961914062;	322,25;	0,0;	0,0
642,5618896484375;	373,5;	0,0;	0,0
642,625244140625;	312,25;	0,0;	0,0
642,6885986328125;	329,25;	0,0;	0,0
642,7518920898438;	325,25;	0,0;	0,0
642,815185546875;	352,5;	0,0;	0,0
642,8784790039062;	320,75;	0,0;	0,0
642,9417114257812;	327,0;	0,0;	0,0
643,0050048828125;	373,0;	0,0;	0,0
643,0682373046875;	429,5;	0,0;	0,0
643,1314086914062;	507,25;	0,0;	0,0
643,1946411132812;	405,25;	0,0;	0,0
643,2577514648438;	321,0;	0,0;	0,0
643,3209838867188;	346,5;	0,0;	0,0
643,3841552734375;	338,25;	0,0;	0,0
643,447265625;	320,0;	0,0;	0,0
643,5104370117188;	323,5;	0,0;	0,0
643,5735473632812;	326,0;	0,0;	0,0
643,6365966796875;	330,25;	0,0;	0,0
643,69970703125;	339,5;	0,0;	0,0
643,7628173828125;	363,5;	0,0;	0,0
643,8258056640625;	412,25;	0,0;	0,0
643,888916015625;	533,0;	0,0;	0,0
643,9519653320312;	696,5;	0,0;	0,0
644,0148315429688;	474,25;	0,0;	0,0
644,077880859375;	332,75;	0,0;	0,0
644,140869140625;	335,0;	0,0;	0,0
644,2037963867188;	336,0;	0,0;	0,0
644,2667846679688;	322,25;	0,0;	0,0
644,3297119140625;	306,5;	0,0;	0,0
644,3926391601562;	323,25;	0,0;	0,0
644,45556640625;	312,5;	0,0;	0,0
644,5184326171875;	339,5;	0,0;	0,0
644,5812377929688;	319,5;	0,0;	0,0
644,6441650390625;	293,25;	0,0;	0,0
644,7069702148438;	321,0;	0,0;	0,0
644,7698364257812;	322,75;	0,0;	0,0
644,8327026367188;	351,75;	0,0;	0,0
644,8953857421875;	358,75;	0,0;	0,0
644,9581909179688;	393,5;	0,0;	0,0
645,02099609375;	377,5;	0,0;	0,0
645,083740234375;	333,75;	0,0;	0,0
645,146484375;	370,25;	0,0;	0,0
645,209228515625;	337,75;	0,0;	0,0
645,2719116210938;	344,25;	0,0;	0,0
645,3345947265625;	339,75;	0,0;	0,0
645,3972778320312;	347,75;	0,0;	0,0
645,4599609375;	345,0;	0,0;	0,0
645,5225830078125;	339,25;	0,0;	0,0
645,585205078125;	337,5;	0,0;	0,0
645,6478881835938;	357,25;	0,0;	0,0
645,71044921875;	350,25;	0,0;	0,0
645,7730102539062;	325,5;	0,0;	0,0
645,8356323242188;	346,0;	0,0;	0,0
645,898193359375;	353,75;	0,0;	0,0
645,960693359375;	374,0;	0,0;	0,0
646,0232543945312;	337,0;	0,0;	0,0
646,0858154296875;	367,25;	0,0;	0,0
646,1482543945312;	397,5;	0,0;	0,0
646,2107543945312;	477,25;	0,0;	0,0
646,273193359375;	585,0;	0,0;	0,0
646,335693359375;	551,5;	0,0;	0,0
646,3980712890625;	352,5;	0,0;	0,0
646,4605712890625;	342,75;	0,0;	0,0
646,5228881835938;	327,0;	0,0;	0,0
646,5853881835938;	316,5;	0,0;	0,0
646,647705078125;	343,25;	0,0;	0,0
646,7100830078125;	336,25;	0,0;	0,0
646,7724609375;	338,75;	0,0;	0,0
646,834716796875;	331,5;	0,0;	0,0
646,8970947265625;	363,25;	0,0;	0,0
646,9594116210938;	360,5;	0,0;	0,0
647,0216064453125;	362,5;	0,0;	0,0
647,083984375;	354,75;	0,0;	0,0
647,146240234375;	353,75;	0,0;	0,0
647,2084350585938;	359,5;	0,0;	0,0
647,2706909179688;	349,25;	0,0;	0,0
647,3329467773438;	324,25;	0,0;	0,0
647,3950805664062;	355,75;	0,0;	0,0
647,4573364257812;	317,25;	0,0;	0,0
647,5194702148438;	318,25;	0,0;	0,0
647,5816040039062;	348,5;	0,0;	0,0
647,6437377929688;	349,5;	0,0;	0,0
647,7058715820312;	327,75;	0,0;	0,0
647,7680053710938;	331,0;	0,0;	0,0
647,830078125;	343,0;	0,0;	0,0
647,89208984375;	339,25;	0,0;	0,0
647,9541625976562;	310,75;	0,0;	0,0
648,0162353515625;	336,25;	0,0;	0,0
648,0783081054688;	343,5;	0,0;	0,0
648,1403198242188;	357,5;	0,0;	0,0
648,2023315429688;	361,0;	0,0;	0,0
648,2642822265625;	352,75;	0,0;	0,0
648,3262939453125;	354,5;	0,0;	0,0
648,3882446289062;	351,75;	0,0;	0,0
648,4501342773438;	342,25;	0,0;	0,0
648,5120849609375;	353,5;	0,0;	0,0
648,5740356445312;	354,75;	0,0;	0,0
648,6358642578125;	391,25;	0,0;	0,0
648,6978149414062;	383,25;	0,0;	0,0
648,7596435546875;	377,5;	0,0;	0,0
648,8214721679688;	353,75;	0,0;	0,0
648,8833618164062;	359,75;	0,0;	0,0
648,9451293945312;	339,5;	0,0;	0,0
649,0069580078125;	341,0;	0,0;	0,0
649,0687866210938;	363,25;	0,0;	0,0
649,1305541992188;	372,25;	0,0;	0,0
649,1923217773438;	345,25;	0,0;	0,0
649,2540893554688;	397,25;	0,0;	0,0
649,3157348632812;	438,0;	0,0;	0,0
649,3775024414062;	529,5;	0,0;	0,0
649,439208984375;	640,0;	0,0;	0,0
649,5009155273438;	845,5;	0,0;	0,0
649,5626220703125;	742,5;	0,0;	0,0
649,624267578125;	462,5;	0,0;	0,0
649,6858520507812;	379,75;	0,0;	0,0
649,7474975585938;	415,0;	0,0;	0,0
649,8091430664062;	375,25;	0,0;	0,0
649,8707275390625;	363,75;	0,0;	0,0
649,9322509765625;	366,75;	0,0;	0,0
649,9938354492188;	368,75;	0,0;	0,0
650,055419921875;	363,0;	0,0;	0,0
650,116943359375;	371,5;	0,0;	0,0
650,1784057617188;	342,25;	0,0;	0,0
650,239990234375;	345,25;	0,0;	0,0
650,3014526367188;	333,75;	0,0;	0,0
650,3629150390625;	327,0;	0,0;	0,0
650,4244384765625;	341,25;	0,0;	0,0
650,48583984375;	364,0;	0,0;	0,0
650,5472412109375;	344,5;	0,0;	0,0
650,608642578125;	358,75;	0,0;	0,0
650,6701049804688;	338,5;	0,0;	0,0
650,7314453125;	331,0;	0,0;	0,0
650,7928466796875;	362,5;	0,0;	0,0
650,8541870117188;	373,25;	0,0;	0,0
650,91552734375;	341,75;	0,0;	0,0
650,9768676757812;	341,25;	0,0;	0,0
651,0382080078125;	313,5;	0,0;	0,0
651,0994262695312;	314,25;	0,0;	0,0
651,1607666015625;	322,0;	0,0;	0,0
651,2219848632812;	340,75;	0,0;	0,0
651,2832641601562;	320,0;	0,0;	0,0
651,344482421875;	337,25;	0,0;	0,0
651,4056396484375;	342,0;	0,0;	0,0
651,4669189453125;	308,5;	0,0;	0,0
651,5281372070312;	328,25;	0,0;	0,0
651,5892333984375;	313,5;	0,0;	0,0
651,6504516601562;	333,5;	0,0;	0,0
651,7116088867188;	325,5;	0,0;	0,0
651,7726440429688;	327,75;	0,0;	0,0
651,8338623046875;	344,0;	0,0;	0,0
651,8949584960938;	336,25;	0,0;	0,0
651,9559936523438;	331,25;	0,0;	0,0
652,0170288085938;	345,25;	0,0;	0,0
652,078125;	318,25;	0,0;	0,0
652,13916015625;	323,5;	0,0;	0,0
652,2001953125;	338,0;	0,0;	0,0
652,2611083984375;	309,0;	0,0;	0,0
652,3221435546875;	315,0;	0,0;	0,0
652,3831176757812;	319,0;	0,0;	0,0
652,4440307617188;	320,25;	0,0;	0,0
652,5050048828125;	358,5;	0,0;	0,0
652,5659790039062;	341,5;	0,0;	0,0
652,6268920898438;	343,5;	0,0;	0,0
652,6878051757812;	342,5;	0,0;	0,0
652,7487182617188;	338,0;	0,0;	0,0
652,8095092773438;	363,25;	0,0;	0,0
652,8704223632812;	321,75;	0,0;	0,0
652,9312744140625;	334,25;	0,0;	0,0
652,9920654296875;	315,75;	0,0;	0,0
653,0528564453125;	328,0;	0,0;	0,0
653,1137084960938;	378,5;	0,0;	0,0
653,1744384765625;	321,25;	0,0;	0,0
653,2351684570312;	365,0;	0,0;	0,0
653,2958984375;	369,25;	0,0;	0,0
653,3566284179688;	338,5;	0,0;	0,0
653,4174194335938;	357,75;	0,0;	0,0
653,4780883789062;	348,0;	0,0;	0,0
653,5387573242188;	355,5;	0,0;	0,0
653,5994873046875;	337,5;	0,0;	0,0
653,6600341796875;	320,25;	0,0;	0,0
653,720703125;	352,75;	0,0;	0,0
653,7813720703125;	347,5;	0,0;	0,0
653,8419799804688;	323,25;	0,0;	0,0
653,9025268554688;	348,25;	0,0;	0,0
653,9631958007812;	363,0;	0,0;	0,0
654,0237426757812;	364,75;	0,0;	0,0
654,084228515625;	341,25;	0,0;	0,0
654,1448364257812;	337,0;	0,0;	0,0
654,205322265625;	356,5;	0,0;	0,0
654,2658081054688;	345,5;	0,0;	0,0
654,3262939453125;	385,25;	0,0;	0,0
654,3867797851562;	371,0;	0,0;	0,0
654,447265625;	389,0;	0,0;	0,0
654,5076904296875;	382,25;	0,0;	0,0
654,568115234375;	429,75;	0,0;	0,0
654,6285400390625;	504,0;	0,0;	0,0
654,6889038085938;	477,0;	0,0;	0,0
654,7493286132812;	405,0;	0,0;	0,0
654,8096923828125;	414,5;	0,0;	0,0
654,8699951171875;	376,75;	0,0;	0,0
654,9303588867188;	441,5;	0,0;	0,0
654,99072265625;	397,5;	0,0;	0,0
655,0509643554688;	432,5;	0,0;	0,0
655,111328125;	426,75;	0,0;	0,0
655,1715698242188;	434,75;	0,0;	0,0
655,2317504882812;	425,25;	0,0;	0,0
655,2920532226562;	425,25;	0,0;	0,0
655,3522338867188;	471,25;	0,0;	0,0
655,4124755859375;	483,75;	0,0;	0,0
655,4727172851562;	473,75;	0,0;	0,0
655,5328369140625;	494,5;	0,0;	0,0
655,593017578125;	515,0;	0,0;	0,0
655,6531982421875;	565,5;	0,0;	0,0
655,7133178710938;	570,25;	0,0;	0,0
655,7734375;	600,25;	0,0;	0,0
655,8335571289062;	623,75;	0,0;	0,0
655,8936157226562;	652,0;	0,0;	0,0
655,9537353515625;	703,75;	0,0;	0,0
656,0138549804688;	752,5;	0,0;	0,0
656,0738525390625;	754,0;	0,0;	0,0
656,1339111328125;	865,25;	0,0;	0,0
656,1939086914062;	925,0;	0,0;	0,0
656,2538452148438;	986,25;	0,0;	0,0
656,3139038085938;	979,75;	0,0;	0,0
656,373779296875;	958,5;	0,0;	0,0
656,4337768554688;	920,5;	0,0;	0,0
656,4937133789062;	858,5;	0,0;	0,0
656,5537109375;	836,0;	0,0;	0,0
656,613525390625;	736,25;	0,0;	0,0
656,6734619140625;	725,25;	0,0;	0,0
656,7333374023438;	706,25;	0,0;	0,0
656,793212890625;	670,25;	0,0;	0,0
656,8530883789062;	632,0;	0,0;	0,0
656,9129028320312;	662,0;	0,0;	0,0
656,97265625;	613,5;	0,0;	0,0
657,032470703125;	551,0;	0,0;	0,0
657,0922241210938;	513,5;	0,0;	0,0
657,1520385742188;	523,5;	0,0;	0,0
657,2118530273438;	510,5;	0,0;	0,0
657,2715454101562;	544,25;	0,0;	0,0
657,3312377929688;	478,5;	0,0;	0,0
657,3909912109375;	482,75;	0,0;	0,0
657,45068359375;	455,25;	0,0;	0,0
657,5103149414062;	455,25;	0,0;	0,0
657,5700073242188;	450,5;	0,0;	0,0
657,629638671875;	398,25;	0,0;	0,0
657,6892700195312;	427,25;	0,0;	0,0
657,7488403320312;	379,0;	0,0;	0,0
657,8085327148438;	391,5;	0,0;	0,0
657,8681030273438;	404,25;	0,0;	0,0
657,9276733398438;	423,0;	0,0;	0,0
657,9871826171875;	392,0;	0,0;	0,0
658,0467529296875;	382,5;	0,0;	0,0
658,106201171875;	380,75;	0,0;	0,0
658,165771484375;	384,5;	0,0;	0,0
658,2252807617188;	379,5;	0,0;	0,0
658,2847290039062;	395,0;	0,0;	0,0
658,3441772460938;	348,75;	0,0;	0,0
658,4036865234375;	360,25;	0,0;	0,0
658,4630737304688;	366,75;	0,0;	0,0
658,5225830078125;	387,25;	0,0;	0,0
658,5819702148438;	350,0;	0,0;	0,0
658,6412963867188;	355,75;	0,0;	0,0
658,70068359375;	357,5;	0,0;	0,0
658,760009765625;	330,75;	0,0;	0,0
658,8193359375;	331,0;	0,0;	0,0
658,8787231445312;	349,5;	0,0;	0,0
658,93798828125;	349,75;	0,0;	0,0
658,997314453125;	336,75;	0,0;	0,0
659,0565795898438;	380,25;	0,0;	0,0
659,1157836914062;	361,0;	0,0;	0,0
659,1751098632812;	369,75;	0,0;	0,0
659,234375;	417,75;	0,0;	0,0
659,2935180664062;	503,25;	0,0;	0,0
659,3527221679688;	480,0;	0,0;	0,0
659,4119262695312;	395,0;	0,0;	0,0
659,4710693359375;	325,25;	0,0;	0,0
659,5302124023438;	343,75;	0,0;	0,0
659,5894165039062;	358,0;	0,0;	0,0
659,6484985351562;	336,5;	0,0;	0,0
659,7076416015625;	337,0;	0,0;	0,0
659,7666625976562;	343,0;	0,0;	0,0
659,8257446289062;	335,25;	0,0;	0,0
659,8848266601562;	358,5;	0,0;	0,0
659,94384765625;	318,75;	0,0;	0,0
660,0029296875;	328,0;	0,0;	0,0
660,0619506835938;	316,0;	0,0;	0,0
660,1209106445312;	328,0;	0,0;	0,0
660,179931640625;	321,75;	0,0;	0,0
660,2389526367188;	328,75;	0,0;	0,0
660,2978515625;	319,0;	0,0;	0,0
660,3568115234375;	318,0;	0,0;	0,0
660,415771484375;	305,0;	0,0;	0,0
660,474609375;	295,75;	0,0;	0,0
660,5335693359375;	301,25;	0,0;	0,0
660,5924072265625;	339,5;	0,0;	0,0
660,6512451171875;	310,0;	0,0;	0,0
660,7101440429688;	325,0;	0,0;	0,0
660,7689208984375;	331,75;	0,0;	0,0
660,8277587890625;	319,0;	0,0;	0,0
660,8865966796875;	314,75;	0,0;	0,0
660,9453125;	321,0;	0,0;	0,0
661,004150390625;	320,0;	0,0;	0,0
661,0628662109375;	348,75;	0,0;	0,0
661,12158203125;	296,0;	0,0;	0,0
661,1802978515625;	309,25;	0,0;	0,0
661,2390747070312;	314,0;	0,0;	0,0
661,2976684570312;	301,5;	0,0;	0,0
661,3564453125;	324,25;	0,0;	0,0
661,4151000976562;	343,0;	0,0;	0,0
661,4737548828125;	354,0;	0,0;	0,0
661,5323486328125;	325,0;	0,0;	0,0
661,5909423828125;	316,75;	0,0;	0,0
661,6495361328125;	353,0;	0,0;	0,0
661,7081298828125;	337,0;	0,0;	0,0
661,7667236328125;	314,0;	0,0;	0,0
661,8252563476562;	315,5;	0,0;	0,0
661,8837890625;	319,25;	0,0;	0,0
661,9422607421875;	309,0;	0,0;	0,0
662,0008544921875;	322,5;	0,0;	0,0
662,0593872070312;	331,5;	0,0;	0,0
662,1177978515625;	323,75;	0,0;	0,0
662,17626953125;	323,0;	0,0;	0,0
662,2346801757812;	313,0;	0,0;	0,0
662,2930908203125;	308,75;	0,0;	0,0
662,3515625;	308,75;	0,0;	0,0
662,4099731445312;	293,75;	0,0;	0,0
662,4683227539062;	316,5;	0,0;	0,0
662,5267333984375;	315,0;	0,0;	0,0
662,5850830078125;	320,25;	0,0;	0,0
662,6433715820312;	332,75;	0,0;	0,0
662,7017211914062;	324,75;	0,0;	0,0
662,760009765625;	305,25;	0,0;	0,0
662,8182983398438;	318,5;	0,0;	0,0
662,8765869140625;	334,0;	0,0;	0,0
662,9348754882812;	309,75;	0,0;	0,0
662,9930419921875;	321,75;	0,0;	0,0
663,0513305664062;	312,0;	0,0;	0,0
663,1094970703125;	314,25;	0,0;	0,0
663,167724609375;	317,5;	0,0;	0,0
663,2259521484375;	329,75;	0,0;	0,0
663,2840576171875;	353,75;	0,0;	0,0
663,3421630859375;	358,0;	0,0;	0,0
663,400390625;	348,0;	0,0;	0,0
663,4584350585938;	336,25;	0,0;	0,0
663,5166015625;	325,25;	0,0;	0,0
663,5746459960938;	325,75;	0,0;	0,0
663,6327514648438;	316,0;	0,0;	0,0
663,6907348632812;	325,0;	0,0;	0,0
663,7488403320312;	318,5;	0,0;	0,0
663,806884765625;	327,0;	0,0;	0,0
663,8648681640625;	321,25;	0,0;	0,0
663,9229125976562;	321,5;	0,0;	0,0
663,9808349609375;	333,0;	0,0;	0,0
664,038818359375;	337,75;	0,0;	0,0
664,0966796875;	306,5;	0,0;	0,0
664,1546630859375;	317,0;	0,0;	0,0
664,2125854492188;	301,25;	0,0;	0,0
664,2705078125;	318,5;	0,0;	0,0
664,328369140625;	292,75;	0,0;	0,0
664,38623046875;	306,25;	0,0;	0,0
664,444091796875;	335,5;	0,0;	0,0
664,501953125;	337,0;	0,0;	0,0
664,5597534179688;	347,25;	0,0;	0,0
664,6175537109375;	317,25;	0,0;	0,0
664,6753540039062;	337,0;	0,0;	0,0
664,733154296875;	346,25;	0,0;	0,0
664,7908935546875;	318,5;	0,0;	0,0
664,8486938476562;	331,0;	0,0;	0,0
664,9064331054688;	304,5;	0,0;	0,0
664,964111328125;	331,5;	0,0;	0,0
665,0217895507812;	305,5;	0,0;	0,0
665,0794677734375;	345,75;	0,0;	0,0
665,1371459960938;	317,5;	0,0;	0,0
665,1947631835938;	361,75;	0,0;	0,0
665,2523803710938;	324,75;	0,0;	0,0
665,3099975585938;	313,25;	0,0;	0,0
665,36767578125;	329,75;	0,0;	0,0
665,4252319335938;	338,75;	0,0;	0,0
665,4827880859375;	351,25;	0,0;	0,0
665,5404052734375;	329,75;	0,0;	0,0
665,597900390625;	369,0;	0,0;	0,0
665,6554565429688;	321,75;	0,0;	0,0
665,7130126953125;	315,75;	0,0;	0,0
665,7704467773438;	338,0;	0,0;	0,0
665,8279418945312;	320,75;	0,0;	0,0
665,8854370117188;	335,0;	0,0;	0,0
665,9428100585938;	366,75;	0,0;	0,0
666,0003051757812;	329,75;	0,0;	0,0
666,0576782226562;	334,0;	0,0;	0,0
666,1150512695312;	320,75;	0,0;	0,0
666,1724853515625;	356,0;	0,0;	0,0
666,2298583984375;	327,75;	0,0;	0,0
666,2871704101562;	371,25;	0,0;	0,0
666,3446044921875;	367,5;	0,0;	0,0
666,4019165039062;	338,75;	0,0;	0,0
666,4591674804688;	345,5;	0,0;	0,0
666,5165405273438;	353,75;	0,0;	0,0
666,57373046875;	334,0;	0,0;	0,0
666,6310424804688;	312,75;	0,0;	0,0
666,6882934570312;	321,75;	0,0;	0,0
666,7454833984375;	347,75;	0,0;	0,0
666,802734375;	342,75;	0,0;	0,0
666,8599243164062;	343,0;	0,0;	0,0
666,9171142578125;	326,25;	0,0;	0,0
666,9742431640625;	320,75;	0,0;	0,0
667,0314331054688;	314,75;	0,0;	0,0
667,0885620117188;	338,75;	0,0;	0,0
667,1456909179688;	318,0;	0,0;	0,0
667,2026977539062;	327,0;	0,0;	0,0
667,2598876953125;	331,75;	0,0;	0,0
667,3169555664062;	321,75;	0,0;	0,0
667,3739624023438;	313,75;	0,0;	0,0
667,4310302734375;	334,0;	0,0;	0,0
667,488037109375;	331,0;	0,0;	0,0
667,5451049804688;	331,25;	0,0;	0,0
667,6021118164062;	327,25;	0,0;	0,0
667,6591186523438;	321,75;	0,0;	0,0
667,7160034179688;	387,0;	0,0;	0,0
667,77294921875;	531,5;	0,0;	0,0
667,8299560546875;	542,0;	0,0;	0,0
667,8867797851562;	349,5;	0,0;	0,0
667,9437255859375;	308,75;	0,0;	0,0
668,0006103515625;	319,0;	0,0;	0,0
668,0574951171875;	299,75;	0,0;	0,0
668,1143798828125;	316,0;	0,0;	0,0
668,171142578125;	329,25;	0,0;	0,0
668,2279663085938;	310,75;	0,0;	0,0
668,2847900390625;	331,0;	0,0;	0,0
668,341552734375;	310,25;	0,0;	0,0
668,3983764648438;	321,0;	0,0;	0,0
668,4552001953125;	310,0;	0,0;	0,0
668,5118408203125;	277,75;	0,0;	0,0
668,568603515625;	300,0;	0,0;	0,0
668,6253662109375;	331,0;	0,0;	0,0
668,6819458007812;	321,0;	0,0;	0,0
668,7387084960938;	334,0;	0,0;	0,0
668,79541015625;	300,25;	0,0;	0,0
668,8519897460938;	325,5;	0,0;	0,0
668,90869140625;	324,0;	0,0;	0,0
668,9652709960938;	319,5;	0,0;	0,0
669,0218505859375;	302,0;	0,0;	0,0
669,0784301757812;	329,0;	0,0;	0,0
669,1350708007812;	300,25;	0,0;	0,0
669,1915893554688;	324,5;	0,0;	0,0
669,2481689453125;	332,75;	0,0;	0,0
669,3046264648438;	304,5;	0,0;	0,0
669,3611450195312;	309,0;	0,0;	0,0
669,4176635742188;	325,5;	0,0;	0,0
669,47412109375;	335,75;	0,0;	0,0
669,5305786132812;	327,75;	0,0;	0,0
669,5870971679688;	313,75;	0,0;	0,0
669,6434326171875;	317,0;	0,0;	0,0
669,6998901367188;	336,75;	0,0;	0,0
669,7562866210938;	342,25;	0,0;	0,0
669,8126220703125;	319,75;	0,0;	0,0
669,8690795898438;	314,75;	0,0;	0,0
669,9254150390625;	309,0;	0,0;	0,0
669,981689453125;	340,75;	0,0;	0,0
670,0380249023438;	341,5;	0,0;	0,0
670,0943603515625;	371,25;	0,0;	0,0
670,150634765625;	340,75;	0,0;	0,0
670,2069091796875;	352,0;	0,0;	0,0
670,2631225585938;	398,25;	0,0;	0,0
670,3193969726562;	395,75;	0,0;	0,0
670,3756713867188;	437,0;	0,0;	0,0
670,4318237304688;	490,25;	0,0;	0,0
670,488037109375;	621,0;	0,0;	0,0
670,544189453125;	841,0;	0,0;	0,0
670,600341796875;	1295,25;	0,0;	0,0
670,656494140625;	2770,5;	0,0;	0,0
670,7127075195312;	6669,5;	0,0;	0,0
670,768798828125;	14171,0;	0,0;	0,0
670,8248291015625;	11154,5;	0,0;	0,0
670,8809814453125;	2379,0;	0,0;	0,0
670,93701171875;	762,75;	0,0;	0,0
670,9930419921875;	553,25;	0,0;	0,0
671,0491333007812;	492,0;	0,0;	0,0
671,1051025390625;	414,75;	0,0;	0,0
671,1611328125;	405,5;	0,0;	0,0
671,2171020507812;	394,75;	0,0;	0,0
671,2730712890625;	364,5;	0,0;	0,0
671,3291015625;	349,5;	0,0;	0,0
671,3849487304688;	354,75;	0,0;	0,0
671,44091796875;	359,25;	0,0;	0,0
671,496826171875;	345,75;	0,0;	0,0
671,5526733398438;	339,75;	0,0;	0,0
671,6085815429688;	370,75;	0,0;	0,0
671,6644897460938;	346,75;	0,0;	0,0
671,7202758789062;	357,0;	0,0;	0,0
671,7761840820312;	341,75;	0,0;	0,0
671,8319702148438;	347,75;	0,0;	0,0
671,8876953125;	340,25;	0,0;	0,0
671,9435424804688;	352,25;	0,0;	0,0
671,9993286132812;	352,5;	0,0;	0,0
672,0550537109375;	323,75;	0,0;	0,0
672,1107788085938;	352,25;	0,0;	0,0
672,16650390625;	319,0;	0,0;	0,0
672,22216796875;	333,0;	0,0;	0,0
672,2778930664062;	316,75;	0,0;	0,0
672,3335571289062;	328,75;	0,0;	0,0
672,3892211914062;	340,0;	0,0;	0,0
672,4448852539062;	332,0;	0,0;	0,0
672,50048828125;	309,5;	0,0;	0,0
672,5560913085938;	335,75;	0,0;	0,0
672,6116943359375;	353,75;	0,0;	0,0
672,6672973632812;	296,0;	0,0;	0,0
672,7228393554688;	368,5;	0,0;	0,0
672,7783813476562;	322,75;	0,0;	0,0
672,8338623046875;	317,25;	0,0;	0,0
672,889404296875;	324,75;	0,0;	0,0
672,9449462890625;	330,0;	0,0;	0,0
673,0003662109375;	335,75;	0,0;	0,0
673,0558471679688;	339,75;	0,0;	0,0
673,111328125;	313,5;	0,0;	0,0
673,166748046875;	310,25;	0,0;	0,0
673,22216796875;	313,5;	0,0;	0,0
673,277587890625;	319,25;	0,0;	0,0
673,3329467773438;	322,75;	0,0;	0,0
673,3883666992188;	350,25;	0,0;	0,0
673,4436645507812;	308,0;	0,0;	0,0
673,4990234375;	320,25;	0,0;	0,0
673,5543823242188;	304,0;	0,0;	0,0
673,6096801757812;	315,75;	0,0;	0,0
673,6649780273438;	315,0;	0,0;	0,0
673,72021484375;	325,5;	0,0;	0,0
673,7755126953125;	307,0;	0,0;	0,0
673,8307495117188;	356,0;	0,0;	0,0
673,885986328125;	366,25;	0,0;	0,0
673,9412231445312;	328,5;	0,0;	0,0
673,9963989257812;	320,75;	0,0;	0,0
674,051513671875;	343,5;	0,0;	0,0
674,106689453125;	316,5;	0,0;	0,0
674,161865234375;	337,0;	0,0;	0,0
674,2169799804688;	315,25;	0,0;	0,0
674,2721557617188;	338,75;	0,0;	0,0
674,3272705078125;	324,25;	0,0;	0,0
674,38232421875;	295,25;	0,0;	0,0
674,4373779296875;	325,5;	0,0;	0,0
674,4924926757812;	325,0;	0,0;	0,0
674,5474853515625;	315,25;	0,0;	0,0
674,6025390625;	326,0;	0,0;	0,0
674,6575317382812;	314,5;	0,0;	0,0
674,7124633789062;	329,25;	0,0;	0,0
674,7674560546875;	306,5;	0,0;	0,0
674,8224487304688;	318,0;	0,0;	0,0
674,8773803710938;	317,5;	0,0;	0,0
674,9323120117188;	335,25;	0,0;	0,0
674,9871826171875;	342,0;	0,0;	0,0
675,0420532226562;	318,75;	0,0;	0,0
675,0969848632812;	317,0;	0,0;	0,0
675,15185546875;	301,25;	0,0;	0,0
675,2066650390625;	309,0;	0,0;	0,0
675,2615356445312;	307,0;	0,0;	0,0
675,3162841796875;	325,75;	0,0;	0,0
675,3711547851562;	347,0;	0,0;	0,0
675,4259033203125;	291,0;	0,0;	0,0
675,4806518554688;	329,5;	0,0;	0,0
675,535400390625;	325,5;	0,0;	0,0
675,5902099609375;	296,75;	0,0;	0,0
675,6448364257812;	312,5;	0,0;	0,0
675,6996459960938;	316,5;	0,0;	0,0
675,7543334960938;	330,75;	0,0;	0,0
675,8088989257812;	304,25;	0,0;	0,0
675,8636474609375;	313,25;	0,0;	0,0
675,9182739257812;	311,75;	0,0;	0,0
675,9728393554688;	319,25;	0,0;	0,0
676,0274658203125;	322,25;	0,0;	0,0
676,0820922851562;	282,0;	0,0;	0,0
676,1366577148438;	319,0;	0,0;	0,0
676,1912231445312;	293,75;	0,0;	0,0
676,2457275390625;	317,5;	0,0;	0,0
676,30029296875;	318,5;	0,0;	0,0
676,3547973632812;	321,5;	0,0;	0,0
676,4092407226562;	293,0;	0,0;	0,0
676,4637451171875;	308,75;	0,0;	0,0
676,5182495117188;	294,25;	0,0;	0,0
676,5726928710938;	312,75;	0,0;	0,0
676,6271362304688;	309,75;	0,0;	0,0
676,6815795898438;	296,5;	0,0;	0,0
676,7359619140625;	304,25;	0,0;	0,0
676,790283203125;	297,0;	0,0;	0,0
676,8447265625;	309,75;	0,0;	0,0
676,8990478515625;	299,75;	0,0;	0,0
676,9534301757812;	314,75;	0,0;	0,0
677,0076904296875;	309,0;	0,0;	0,0
677,06201171875;	300,0;	0,0;	0,0
677,1163330078125;	289,75;	0,0;	0,0
677,1705322265625;	302,75;	0,0;	0,0
677,2247924804688;	312,75;	0,0;	0,0
677,279052734375;	308,0;	0,0;	0,0
677,333251953125;	322,5;	0,0;	0,0
677,3875122070312;	315,25;	0,0;	0,0
677,4417114257812;	310,25;	0,0;	0,0
677,4957885742188;	312,25;	0,0;	0,0
677,550048828125;	294,5;	0,0;	0,0
677,6041870117188;	269,25;	0,0;	0,0
677,6583251953125;	294,5;	0,0;	0,0
677,71240234375;	312,0;	0,0;	0,0
677,7665405273438;	302,0;	0,0;	0,0
677,8206176757812;	313,75;	0,0;	0,0
677,8746948242188;	307,0;	0,0;	0,0
677,9287109375;	316,25;	0,0;	0,0
677,9827270507812;	282,0;	0,0;	0,0
678,0367431640625;	313,5;	0,0;	0,0
678,0906982421875;	297,25;	0,0;	0,0
678,144775390625;	314,0;	0,0;	0,0
678,19873046875;	303,0;	0,0;	0,0
678,2526245117188;	311,0;	0,0;	0,0
678,3065795898438;	311,75;	0,0;	0,0
678,3605346679688;	288,0;	0,0;	0,0
678,4144287109375;	280,0;	0,0;	0,0
678,4683227539062;	300,0;	0,0;	0,0
678,5221557617188;	321,5;	0,0;	0,0
678,5759887695312;	298,25;	0,0;	0,0
678,6298828125;	301,5;	0,0;	0,0
678,6837158203125;	305,0;	0,0;	0,0
678,7374877929688;	307,0;	0,0;	0,0
678,791259765625;	308,75;	0,0;	0,0
678,8450927734375;	290,0;	0,0;	0,0
678,8988037109375;	293,25;	0,0;	0,0
678,9525756835938;	282,5;	0,0;	0,0
679,0062866210938;	304,5;	0,0;	0,0
679,0599975585938;	289,75;	0,0;	0,0
679,1137084960938;	310,5;	0,0;	0,0
679,1674194335938;	285,0;	0,0;	0,0
679,2210083007812;	292,25;	0,0;	0,0
679,2747192382812;	294,75;	0,0;	0,0
679,3283081054688;	264,75;	0,0;	0,0
679,3819580078125;	307,25;	0,0;	0,0
679,435546875;	291,5;	0,0;	0,0
679,4890747070312;	304,0;	0,0;	0,0
679,542724609375;	282,75;	0,0;	0,0
679,5962524414062;	309,75;	0,0;	0,0
679,6497192382812;	292,0;	0,0;	0,0
679,7032470703125;	284,25;	0,0;	0,0
679,7568359375;	306,5;	0,0;	0,0
679,810302734375;	282,25;	0,0;	0,0
679,86376953125;	288,25;	0,0;	0,0
679,9171752929688;	305,5;	0,0;	0,0
679,9706420898438;	294,5;	0,0;	0,0
680,0240478515625;	301,75;	0,0;	0,0
680,0775146484375;	305,5;	0,0;	0,0
680,130859375;	294,5;	0,0;	0,0
680,1842651367188;	293,25;	0,0;	0,0
680,237548828125;	308,25;	0,0;	0,0
680,2909545898438;	299,75;	0,0;	0,0
680,3442993164062;	302,25;	0,0;	0,0
680,3975830078125;	279,25;	0,0;	0,0
680,4508666992188;	279,5;	0,0;	0,0
680,504150390625;	312,0;	0,0;	0,0
680,557373046875;	291,75;	0,0;	0,0
680,6106567382812;	283,5;	0,0;	0,0
680,6639404296875;	285,0;	0,0;	0,0
680,717041015625;	304,25;	0,0;	0,0
680,7703247070312;	324,5;	0,0;	0,0
680,8234252929688;	295,75;	0,0;	0,0
680,8766479492188;	303,25;	0,0;	0,0
680,9297485351562;	295,5;	0,0;	0,0
680,9829711914062;	284,5;	0,0;	0,0
681,0360107421875;	301,75;	0,0;	0,0
681,0891723632812;	300,75;	0,0;	0,0
681,1421508789062;	298,0;	0,0;	0,0
681,1953125;	292,25;	0,0;	0,0
681,2483520507812;	310,75;	0,0;	0,0
681,3013305664062;	272,75;	0,0;	0,0
681,3544311523438;	290,25;	0,0;	0,0
681,4074096679688;	285,0;	0,0;	0,0
681,4603271484375;	307,5;	0,0;	0,0
681,5133056640625;	280,75;	0,0;	0,0
681,5662841796875;	269,75;	0,0;	0,0
681,6192626953125;	306,5;	0,0;	0,0
681,6721801757812;	300,5;	0,0;	0,0
681,72509765625;	302,25;	0,0;	0,0
681,7779541015625;	280,75;	0,0;	0,0
681,8308715820312;	315,75;	0,0;	0,0
681,8837280273438;	314,25;	0,0;	0,0
681,9365234375;	301,75;	0,0;	0,0
681,9893798828125;	287,0;	0,0;	0,0
682,0421142578125;	296,75;	0,0;	0,0
682,0949096679688;	301,75;	0,0;	0,0
682,1477661132812;	296,5;	0,0;	0,0
682,2005004882812;	288,25;	0,0;	0,0
682,2532958984375;	272,5;	0,0;	0,0
682,3059692382812;	298,25;	0,0;	0,0
682,358642578125;	286,25;	0,0;	0,0
682,411376953125;	295,75;	0,0;	0,0
682,4640502929688;	298,0;	0,0;	0,0
682,5167236328125;	291,75;	0,0;	0,0
682,5693359375;	271,0;	0,0;	0,0
682,6220092773438;	295,5;	0,0;	0,0
682,674560546875;	315,25;	0,0;	0,0
682,7272338867188;	304,0;	0,0;	0,0
682,77978515625;	310,75;	0,0;	0,0
682,8323974609375;	316,5;	0,0;	0,0
682,8849487304688;	290,25;	0,0;	0,0
682,9373779296875;	309,5;	0,0;	0,0
682,989990234375;	279,5;	0,0;	0,0
683,04248046875;	298,75;	0,0;	0,0
683,0949096679688;	311,75;	0,0;	0,0
683,1473999023438;	278,0;	0,0;	0,0
683,1998901367188;	294,25;	0,0;	0,0
683,2523193359375;	262,75;	0,0;	0,0
683,3047485351562;	298,25;	0,0;	0,0
683,357177734375;	303,25;	0,0;	0,0
683,4094848632812;	287,5;	0,0;	0,0
683,4619140625;	294,0;	0,0;	0,0
683,5142822265625;	300,75;	0,0;	0,0
683,5665893554688;	278,5;	0,0;	0,0
683,6189575195312;	283,5;	0,0;	0,0
683,6712646484375;	300,25;	0,0;	0,0
683,7235107421875;	284,0;	0,0;	0,0
683,7757568359375;	307,25;	0,0;	0,0
683,8280029296875;	282,25;	0,0;	0,0
683,8803100585938;	310,75;	0,0;	0,0
683,9325561523438;	302,5;	0,0;	0,0
683,9846801757812;	344,0;	0,0;	0,0
684,0369262695312;	316,5;	0,0;	0,0
684,0891723632812;	305,5;	0,0;	0,0
684,1412353515625;	329,75;	0,0;	0,0
684,1934204101562;	314,25;	0,0;	0,0
684,2455444335938;	321,5;	0,0;	0,0
684,2976684570312;	317,25;	0,0;	0,0
684,3497314453125;	346,25;	0,0;	0,0
684,40185546875;	307,75;	0,0;	0,0
684,453857421875;	301,5;	0,0;	0,0
684,5059204101562;	293,75;	0,0;	0,0
684,5579833984375;	273,5;	0,0;	0,0
684,6099853515625;	296,5;	0,0;	0,0
684,6619873046875;	321,25;	0,0;	0,0
684,7139892578125;	288,75;	0,0;	0,0
684,7659301757812;	282,25;	0,0;	0,0
684,8179321289062;	276,25;	0,0;	0,0
684,869873046875;	295,25;	0,0;	0,0
684,9216918945312;	278,0;	0,0;	0,0
684,9736328125;	310,75;	0,0;	0,0
685,0255126953125;	287,0;	0,0;	0,0
685,077392578125;	305,0;	0,0;	0,0
685,1292724609375;	294,5;	0,0;	0,0
685,1810302734375;	276,5;	0,0;	0,0
685,23291015625;	273,75;	0,0;	0,0
685,2847290039062;	290,0;	0,0;	0,0
685,3364868164062;	286,0;	0,0;	0,0
685,3882446289062;	329,75;	0,0;	0,0
685,4400024414062;	330,25;	0,0;	0,0
685,4917602539062;	337,75;	0,0;	0,0
685,5435180664062;	320,5;	0,0;	0,0
685,5951538085938;	272,0;	0,0;	0,0
685,6468505859375;	301,25;	0,0;	0,0
685,6985473632812;	322,5;	0,0;	0,0
685,750244140625;	312,75;	0,0;	0,0
685,8018798828125;	306,25;	0,0;	0,0
685,8534545898438;	292,5;	0,0;	0,0
685,905029296875;	296,0;	0,0;	0,0
685,9566650390625;	309,75;	0,0;	0,0
686,0082397460938;	309,25;	0,0;	0,0
686,059814453125;	293,5;	0,0;	0,0
686,111328125;	287,25;	0,0;	0,0
686,162841796875;	306,5;	0,0;	0,0
686,21435546875;	288,75;	0,0;	0,0
686,265869140625;	289,5;	0,0;	0,0
686,3173828125;	273,25;	0,0;	0,0
686,3687744140625;	265,0;	0,0;	0,0
686,4202270507812;	294,25;	0,0;	0,0
686,4716186523438;	315,25;	0,0;	0,0
686,5230712890625;	286,75;	0,0;	0,0
686,574462890625;	291,5;	0,0;	0,0
686,6258544921875;	299,0;	0,0;	0,0
686,6771850585938;	283,5;	0,0;	0,0
686,7285766601562;	307,5;	0,0;	0,0
686,7799072265625;	295,25;	0,0;	0,0
686,8312377929688;	299,75;	0,0;	0,0
686,882568359375;	297,0;	0,0;	0,0
686,9337768554688;	306,75;	0,0;	0,0
686,9850463867188;	272,75;	0,0;	0,0
687,0363159179688;	289,0;	0,0;	0,0
687,0875244140625;	279,25;	0,0;	0,0
687,1387329101562;	297,0;	0,0;	0,0
687,1900024414062;	269,25;	0,0;	0,0
687,2410888671875;	297,25;	0,0;	0,0
687,2922973632812;	269,0;	0,0;	0,0
687,3434448242188;	289,5;	0,0;	0,0
687,3945922851562;	280,0;	0,0;	0,0
687,4457397460938;	295,0;	0,0;	0,0
687,4968872070312;	296,0;	0,0;	0,0
687,5479125976562;	275,0;	0,0;	0,0
687,5989379882812;	283,75;	0,0;	0,0
687,6500244140625;	289,0;	0,0;	0,0
687,7010498046875;	300,0;	0,0;	0,0
687,7520751953125;	302,5;	0,0;	0,0
687,8030395507812;	318,5;	0,0;	0,0
687,8540649414062;	316,75;	0,0;	0,0
687,905029296875;	293,5;	0,0;	0,0
687,9559936523438;	301,5;	0,0;	0,0
688,0069580078125;	307,25;	0,0;	0,0
688,0579223632812;	299,25;	0,0;	0,0
688,1087646484375;	292,75;	0,0;	0,0
688,1596069335938;	287,75;	0,0;	0,0
688,2105102539062;	290,25;	0,0;	0,0
688,2613525390625;	287,0;	0,0;	0,0
688,3121948242188;	302,5;	0,0;	0,0
688,3630981445312;	273,75;	0,0;	0,0
688,4138793945312;	278,75;	0,0;	0,0
688,464599609375;	283,0;	0,0;	0,0
688,515380859375;	291,5;	0,0;	0,0
688,566162109375;	304,75;	0,0;	0,0
688,6168823242188;	290,25;	0,0;	0,0
688,6676025390625;	299,75;	0,0;	0,0
688,7183227539062;	266,0;	0,0;	0,0
688,76904296875;	282,75;	0,0;	0,0
688,8196411132812;	278,75;	0,0;	0,0
688,870361328125;	269,5;	0,0;	0,0
688,9210205078125;	294,25;	0,0;	0,0
688,9716186523438;	302,0;	0,0;	0,0
689,0222778320312;	281,75;	0,0;	0,0
689,0728149414062;	287,75;	0,0;	0,0
689,1234130859375;	286,25;	0,0;	0,0
689,1740112304688;	293,0;	0,0;	0,0
689,2245483398438;	283,5;	0,0;	0,0
689,2750244140625;	267,25;	0,0;	0,0
689,3255615234375;	305,75;	0,0;	0,0
689,3759765625;	259,0;	0,0;	0,0
689,426513671875;	271,5;	0,0;	0,0
689,4769897460938;	280,25;	0,0;	0,0
689,5274658203125;	283,0;	0,0;	0,0
689,5778198242188;	282,25;	0,0;	0,0
689,6282958984375;	288,5;	0,0;	0,0
689,6786499023438;	268,75;	0,0;	0,0
689,7290649414062;	272,5;	0,0;	0,0
689,7794799804688;	267,5;	0,0;	0,0
689,8297119140625;	295,0;	0,0;	0,0
689,8800659179688;	280,25;	0,0;	0,0
689,930419921875;	275,75;	0,0;	0,0
689,9806518554688;	291,25;	0,0;	0,0
690,031005859375;	297,25;	0,0;	0,0
690,081298828125;	287,0;	0,0;	0,0
690,1314697265625;	289,5;	0,0;	0,0
690,1817626953125;	283,25;	0,0;	0,0
690,23193359375;	272,5;	0,0;	0,0
690,2821655273438;	284,0;	0,0;	0,0
690,3323364257812;	279,5;	0,0;	0,0
690,3825073242188;	286,75;	0,0;	0,0
690,4326782226562;	287,0;	0,0;	0,0
690,4827880859375;	279,25;	0,0;	0,0
690,5328369140625;	275,0;	0,0;	0,0
690,5829467773438;	280,25;	0,0;	0,0
690,6331176757812;	274,75;	0,0;	0,0
690,6831665039062;	268,0;	0,0;	0,0
690,7332153320312;	280,0;	0,0;	0,0
690,7832641601562;	279,0;	0,0;	0,0
690,833251953125;	278,0;	0,0;	0,0
690,8832397460938;	313,75;	0,0;	0,0
690,9332885742188;	294,0;	0,0;	0,0
690,9832153320312;	317,0;	0,0;	0,0
691,033203125;	362,5;	0,0;	0,0
691,0830078125;	389,5;	0,0;	0,0
691,1329956054688;	366,75;	0,0;	0,0
691,1829223632812;	328,0;	0,0;	0,0
691,2328491210938;	305,0;	0,0;	0,0
691,2826538085938;	288,75;	0,0;	0,0
691,33251953125;	289,25;	0,0;	0,0
691,38232421875;	272,25;	0,0;	0,0
691,43212890625;	253,0;	0,0;	0,0
691,4819946289062;	274,5;	0,0;	0,0
691,53173828125;	282,75;	0,0;	0,0
691,58154296875;	277,0;	0,0;	0,0
691,6312866210938;	269,0;	0,0;	0,0
691,6810302734375;	290,5;	0,0;	0,0
691,730712890625;	296,25;	0,0;	0,0
691,7804565429688;	305,75;	0,0;	0,0
691,8301391601562;	271,5;	0,0;	0,0
691,8798217773438;	296,0;	0,0;	0,0
691,929443359375;	293,75;	0,0;	0,0
691,9790649414062;	290,0;	0,0;	0,0
692,0286865234375;	277,75;	0,0;	0,0
692,0783081054688;	281,75;	0,0;	0,0
692,1278686523438;	279,5;	0,0;	0,0
692,177490234375;	270,25;	0,0;	0,0
692,2269897460938;	286,0;	0,0;	0,0
692,2765502929688;	288,25;	0,0;	0,0
692,3261108398438;	265,25;	0,0;	0,0
692,3755493164062;	299,75;	0,0;	0,0
692,4251098632812;	276,5;	0,0;	0,0
692,474609375;	276,5;	0,0;	0,0
692,5240478515625;	302,0;	0,0;	0,0
692,5734252929688;	292,0;	0,0;	0,0
692,6229248046875;	288,25;	0,0;	0,0
692,6723022460938;	287,75;	0,0;	0,0
692,7216796875;	263,25;	0,0;	0,0
692,7711181640625;	263,5;	0,0;	0,0
692,8203735351562;	291,5;	0,0;	0,0
692,8697509765625;	280,0;	0,0;	0,0
692,9190673828125;	281,75;	0,0;	0,0
692,9683837890625;	297,5;	0,0;	0,0
693,0177001953125;	297,75;	0,0;	0,0
693,06689453125;	279,25;	0,0;	0,0
693,1162109375;	284,0;	0,0;	0,0
693,1654663085938;	253,75;	0,0;	0,0
693,214599609375;	289,25;	0,0;	0,0
693,2638549804688;	289,25;	0,0;	0,0
693,3130493164062;	301,0;	0,0;	0,0
693,3622436523438;	286,0;	0,0;	0,0
693,4114379882812;	289,75;	0,0;	0,0
693,4605712890625;	308,0;	0,0;	0,0
693,5096435546875;	313,0;	0,0;	0,0
693,5587768554688;	289,0;	0,0;	0,0
693,6078491210938;	305,0;	0,0;	0,0
693,6568603515625;	304,25;	0,0;	0,0
693,7059936523438;	327,0;	0,0;	0,0
693,7550659179688;	350,0;	0,0;	0,0
693,8040771484375;	415,5;	0,0;	0,0
693,85302734375;	545,0;	0,0;	0,0
693,9020385742188;	433,5;	0,0;	0,0
693,9510498046875;	339,5;	0,0;	0,0
694,0;	310,5;	0,0;	0,0
694,0488891601562;	285,75;	0,0;	0,0
694,0978393554688;	294,0;	0,0;	0,0
694,1467895507812;	272,25;	0,0;	0,0
694,1956176757812;	308,25;	0,0;	0,0
694,2445068359375;	288,75;	0,0;	0,0
694,2933959960938;	297,75;	0,0;	0,0
694,3421630859375;	287,5;	0,0;	0,0
694,3910522460938;	314,0;	0,0;	0,0
694,4398803710938;	307,5;	0,0;	0,0
694,4886474609375;	326,25;	0,0;	0,0
694,5374145507812;	287,75;	0,0;	0,0
694,5862426757812;	286,75;	0,0;	0,0
694,6349487304688;	308,0;	0,0;	0,0
694,6836547851562;	275,75;	0,0;	0,0
694,7323608398438;	302,5;	0,0;	0,0
694,7810668945312;	292,75;	0,0;	0,0
694,8297729492188;	279,75;	0,0;	0,0
694,8784790039062;	307,0;	0,0;	0,0
694,927001953125;	293,75;	0,0;	0,0
694,9756469726562;	299,25;	0,0;	0,0
695,0242309570312;	281,75;	0,0;	0,0
695,0728759765625;	290,25;	0,0;	0,0
695,1213989257812;	300,5;	0,0;	0,0
695,1699829101562;	312,25;	0,0;	0,0
695,2185668945312;	292,0;	0,0;	0,0
695,26708984375;	289,25;	0,0;	0,0
695,3155517578125;	296,0;	0,0;	0,0
695,3640747070312;	312,25;	0,0;	0,0
695,41259765625;	286,0;	0,0;	0,0
695,4609985351562;	272,0;	0,0;	0,0
695,5094604492188;	267,5;	0,0;	0,0
695,557861328125;	300,0;	0,0;	0,0
695,6062622070312;	291,0;	0,0;	0,0
695,6547241210938;	291,5;	0,0;	0,0
695,7030639648438;	260,5;	0,0;	0,0
695,7514038085938;	264,75;	0,0;	0,0
695,7997436523438;	298,5;	0,0;	0,0
695,8480224609375;	288,0;	0,0;	0,0
695,8963623046875;	282,75;	0,0;	0,0
695,9447021484375;	281,25;	0,0;	0,0
695,992919921875;	289,75;	0,0;	0,0
696,0411987304688;	279,25;	0,0;	0,0
696,0894775390625;	277,0;	0,0;	0,0
696,1376342773438;	294,25;	0,0;	0,0
696,1859130859375;	281,0;	0,0;	0,0
696,234130859375;	268,25;	0,0;	0,0
696,2822265625;	309,5;	0,0;	0,0
696,3304443359375;	287,0;	0,0;	0,0
696,3785400390625;	298,5;	0,0;	0,0
696,4266357421875;	258,5;	0,0;	0,0
696,4747924804688;	301,5;	0,0;	0,0
696,5228881835938;	300,75;	0,0;	0,0
696,5709838867188;	283,0;	0,0;	0,0
696,6190185546875;	277,75;	0,0;	0,0
696,6670532226562;	320,75;	0,0;	0,0
696,715087890625;	291,75;	0,0;	0,0
696,7631225585938;	278,25;	0,0;	0,0
696,8110961914062;	279,0;	0,0;	0,0
696,8590698242188;	298,75;	0,0;	0,0
696,9070434570312;	261,25;	0,0;	0,0
696,9548950195312;	271,75;	0,0;	0,0
697,0029296875;	268,0;	0,0;	0,0
697,0508422851562;	304,0;	0,0;	0,0
697,0986938476562;	294,25;	0,0;	0,0
697,1466064453125;	253,5;	0,0;	0,0
697,1943969726562;	263,25;	0,0;	0,0
697,2422485351562;	280,5;	0,0;	0,0
697,2901000976562;	277,5;	0,0;	0,0
697,337890625;	279,0;	0,0;	0,0
697,3856811523438;	275,75;	0,0;	0,0
697,4334716796875;	272,0;	0,0;	0,0
697,481201171875;	287,75;	0,0;	0,0
697,5289306640625;	264,25;	0,0;	0,0
697,5767211914062;	279,5;	0,0;	0,0
697,6243896484375;	266,25;	0,0;	0,0
697,6720581054688;	300,5;	0,0;	0,0
697,7197875976562;	286,75;	0,0;	0,0
697,7673950195312;	305,0;	0,0;	0,0
697,8150634765625;	307,25;	0,0;	0,0
697,8626708984375;	285,0;	0,0;	0,0
697,9102172851562;	309,75;	0,0;	0,0
697,9578857421875;	285,75;	0,0;	0,0
698,0054931640625;	306,0;	0,0;	0,0
698,052978515625;	270,0;	0,0;	0,0
698,1005249023438;	286,5;	0,0;	0,0
698,1481323242188;	287,25;	0,0;	0,0
698,195556640625;	263,25;	0,0;	0,0
698,2431030273438;	289,5;	0,0;	0,0
698,29052734375;	254,0;	0,0;	0,0
698,3380126953125;	272,75;	0,0;	0,0
698,3854370117188;	288,5;	0,0;	0,0
698,432861328125;	288,5;	0,0;	0,0
698,480224609375;	291,25;	0,0;	0,0
698,5276489257812;	280,0;	0,0;	0,0
698,5750122070312;	263,25;	0,0;	0,0
698,6223754882812;	275,25;	0,0;	0,0
698,669677734375;	280,25;	0,0;	0,0
698,7169799804688;	285,0;	0,0;	0,0
698,7643432617188;	283,5;	0,0;	0,0
698,8116455078125;	270,5;	0,0;	0,0
698,85888671875;	255,0;	0,0;	0,0
698,9061279296875;	272,0;	0,0;	0,0
698,9534301757812;	287,0;	0,0;	0,0
699,0006103515625;	265,25;	0,0;	0,0
699,0477905273438;	291,75;	0,0;	0,0
699,094970703125;	282,0;	0,0;	0,0
699,1421508789062;	278,5;	0,0;	0,0
699,1893310546875;	260,5;	0,0;	0,0
699,2363891601562;	269,5;	0,0;	0,0
699,2835693359375;	262,75;	0,0;	0,0
699,3306884765625;	285,5;	0,0;	0,0
699,3777465820312;	286,25;	0,0;	0,0
699,4248657226562;	292,75;	0,0;	0,0
699,471923828125;	271,25;	0,0;	0,0
699,5189208984375;	257,25;	0,0;	0,0
699,5659790039062;	287,25;	0,0;	0,0
699,6129150390625;	298,0;	0,0;	0,0
699,659912109375;	305,75;	0,0;	0,0
699,7069091796875;	285,5;	0,0;	0,0
699,75390625;	292,5;	0,0;	0,0
699,80078125;	286,0;	0,0;	0,0
699,8477172851562;	305,0;	0,0;	0,0
699,8945922851562;	294,75;	0,0;	0,0
699,9414672851562;	283,25;	0,0;	0,0
699,9884033203125;	286,25;	0,0;	0,0
700,0352172851562;	287,5;	0,0;	0,0
700,0820922851562;	270,0;	0,0;	0,0
700,12890625;	283,75;	0,0;	0,0
700,1755981445312;	271,0;	0,0;	0,0
700,2224731445312;	275,5;	0,0;	0,0
700,2692260742188;	273,25;	0,0;	0,0
700,31591796875;	263,5;	0,0;	0,0
700,3626708984375;	284,75;	0,0;	0,0
700,409423828125;	286,0;	0,0;	0,0
700,4560546875;	265,75;	0,0;	0,0
700,5027465820312;	288,0;	0,0;	0,0
700,5494384765625;	267,75;	0,0;	0,0
700,5960693359375;	284,25;	0,0;	0,0
700,6427001953125;	289,5;	0,0;	0,0
700,6893310546875;	271,25;	0,0;	0,0
700,7359619140625;	264,0;	0,0;	0,0
700,7825317382812;	263,25;	0,0;	0,0
700,8291015625;	275,0;	0,0;	0,0
700,8756103515625;	277,25;	0,0;	0,0
700,9221801757812;	291,5;	0,0;	0,0
700,9686279296875;	284,5;	0,0;	0,0
701,0151977539062;	260,5;	0,0;	0,0
701,0617065429688;	296,5;	0,0;	0,0
701,1080932617188;	284,5;	0,0;	0,0
701,154541015625;	266,25;	0,0;	0,0
701,2010498046875;	274,25;	0,0;	0,0
701,2473754882812;	281,25;	0,0;	0,0
701,2937622070312;	266,25;	0,0;	0,0
701,3402099609375;	278,25;	0,0;	0,0
701,3865356445312;	271,5;	0,0;	0,0
701,432861328125;	296,5;	0,0;	0,0
701,4791870117188;	276,5;	0,0;	0,0
701,5255126953125;	279,0;	0,0;	0,0
701,5718383789062;	289,0;	0,0;	0,0
701,6181030273438;	303,25;	0,0;	0,0
701,664306640625;	304,25;	0,0;	0,0
701,7106323242188;	268,25;	0,0;	0,0
701,7567749023438;	278,5;	0,0;	0,0
701,8030395507812;	275,0;	0,0;	0,0
701,8492431640625;	285,5;	0,0;	0,0
701,8953857421875;	272,5;	0,0;	0,0
701,9415283203125;	270,0;	0,0;	0,0
701,9877319335938;	275,25;	0,0;	0,0
702,0338134765625;	297,0;	0,0;	0,0
702,0799560546875;	261,75;	0,0;	0,0
702,1260375976562;	272,75;	0,0;	0,0
702,172119140625;	296,0;	0,0;	0,0
702,2181396484375;	306,0;	0,0;	0,0
702,2642211914062;	279,0;	0,0;	0,0
702,3101806640625;	296,75;	0,0;	0,0
702,356201171875;	305,75;	0,0;	0,0
702,4022216796875;	307,0;	0,0;	0,0
702,4481811523438;	285,0;	0,0;	0,0
702,494140625;	288,0;	0,0;	0,0
702,5400390625;	267,25;	0,0;	0,0
702,5859985351562;	289,25;	0,0;	0,0
702,6318969726562;	270,0;	0,0;	0,0
702,6777954101562;	279,5;	0,0;	0,0
702,7236938476562;	274,5;	0,0;	0,0
702,76953125;	279,0;	0,0;	0,0
702,8153686523438;	294,5;	0,0;	0,0
702,8611450195312;	269,0;	0,0;	0,0
702,906982421875;	292,75;	0,0;	0,0
702,9527587890625;	286,75;	0,0;	0,0
702,99853515625;	265,0;	0,0;	0,0
703,0443115234375;	284,25;	0,0;	0,0
703,0900268554688;	261,0;	0,0;	0,0
703,1357421875;	290,25;	0,0;	0,0
703,1814575195312;	275,75;	0,0;	0,0
703,2271118164062;	255,0;	0,0;	0,0
703,2728271484375;	258,0;	0,0;	0,0
703,3184204101562;	264,0;	0,0;	0,0
703,364013671875;	317,0;	0,0;	0,0
703,4097290039062;	295,75;	0,0;	0,0
703,4552612304688;	275,0;	0,0;	0,0
703,5008544921875;	292,0;	0,0;	0,0
703,5464477539062;	269,5;	0,0;	0,0
703,5919189453125;	262,5;	0,0;	0,0
703,6375122070312;	276,75;	0,0;	0,0
703,6830444335938;	286,0;	0,0;	0,0
703,728515625;	262,0;	0,0;	0,0
703,7739868164062;	303,75;	0,0;	0,0
703,8195190429688;	288,75;	0,0;	0,0
703,8649291992188;	287,25;	0,0;	0,0
703,910400390625;	266,0;	0,0;	0,0
703,9557495117188;	268,5;	0,0;	0,0
704,0011596679688;	275,75;	0,0;	0,0
704,0465698242188;	265,25;	0,0;	0,0
704,0918579101562;	250,0;	0,0;	0,0
704,1372680664062;	272,5;	0,0;	0,0
704,1825561523438;	299,25;	0,0;	0,0
704,2278442382812;	261,75;	0,0;	0,0
704,2731323242188;	271,5;	0,0;	0,0
704,3184204101562;	274,0;	0,0;	0,0
704,3637084960938;	296,75;	0,0;	0,0
704,408935546875;	261,0;	0,0;	0,0
704,4541625976562;	274,75;	0,0;	0,0
704,4993286132812;	265,75;	0,0;	0,0
704,5445556640625;	271,5;	0,0;	0,0
704,5897827148438;	292,25;	0,0;	0,0
704,6348876953125;	280,0;	0,0;	0,0
704,6800537109375;	259,25;	0,0;	0,0
704,7252197265625;	263,25;	0,0;	0,0
704,7702026367188;	260,75;	0,0;	0,0
704,8153076171875;	282,0;	0,0;	0,0
704,8603515625;	283,5;	0,0;	0,0
704,9054565429688;	266,0;	0,0;	0,0
704,9505615234375;	268,5;	0,0;	0,0
704,9955444335938;	248,25;	0,0;	0,0
705,04052734375;	268,5;	0,0;	0,0
705,0855102539062;	255,25;	0,0;	0,0
705,1304931640625;	279,5;	0,0;	0,0
705,1754150390625;	280,75;	0,0;	0,0
705,2203979492188;	259,0;	0,0;	0,0
705,2652587890625;	276,75;	0,0;	0,0
705,3102416992188;	274,5;	0,0;	0,0
705,3551025390625;	282,75;	0,0;	0,0
705,39990234375;	233,25;	0,0;	0,0
705,4447631835938;	276,0;	0,0;	0,0
705,4896850585938;	262,75;	0,0;	0,0
705,534423828125;	261,25;	0,0;	0,0
705,5792846679688;	286,25;	0,0;	0,0
705,6240234375;	248,0;	0,0;	0,0
705,6688232421875;	282,0;	0,0;	0,0
705,7135620117188;	277,75;	0,0;	0,0
705,75830078125;	251,0;	0,0;	0,0
705,8029174804688;	282,5;	0,0;	0,0
705,84765625;	268,0;	0,0;	0,0
705,892333984375;	283,0;	0,0;	0,0
705,93701171875;	276,25;	0,0;	0,0
705,981689453125;	280,0;	0,0;	0,0
706,0262451171875;	260,25;	0,0;	0,0
706,0708618164062;	263,0;	0,0;	0,0
706,1155395507812;	232,0;	0,0;	0,0
706,1600341796875;	258,5;	0,0;	0,0
706,2046508789062;	251,5;	0,0;	0,0
706,2492065429688;	256,5;	0,0;	0,0
706,2936401367188;	255,5;	0,0;	0,0
706,3381958007812;	267,0;	0,0;	0,0
706,3826293945312;	288,25;	0,0;	0,0
706,4271240234375;	258,25;	0,0;	0,0
706,4716186523438;	291,75;	0,0;	0,0
706,5160522460938;	262,75;	0,0;	0,0
706,5604248046875;	261,5;	0,0;	0,0
706,6048583984375;	272,0;	0,0;	0,0
706,6492309570312;	299,5;	0,0;	0,0
706,693603515625;	294,25;	0,0;	0,0
706,738037109375;	271,75;	0,0;	0,0
706,7823486328125;	287,25;	0,0;	0,0
706,82666015625;	277,0;	0,0;	0,0
706,8709716796875;	274,75;	0,0;	0,0
706,9152221679688;	267,0;	0,0;	0,0
706,9595336914062;	290,75;	0,0;	0,0
707,0037841796875;	265,5;	0,0;	0,0
707,0479736328125;	273,5;	0,0;	0,0
707,0922241210938;	274,75;	0,0;	0,0
707,136474609375;	259,0;	0,0;	0,0
707,1806030273438;	287,25;	0,0;	0,0
707,2247314453125;	292,25;	0,0;	0,0
707,2689819335938;	249,75;	0,0;	0,0
707,3130493164062;	251,25;	0,0;	0,0
707,357177734375;	269,0;	0,0;	0,0
707,4012451171875;	281,0;	0,0;	0,0
707,4453125;	255,0;	0,0;	0,0
707,4893798828125;	263,25;	0,0;	0,0
707,5333862304688;	270,0;	0,0;	0,0
707,5774536132812;	262,0;	0,0;	0,0
707,6215209960938;	233,5;	0,0;	0,0
707,6654663085938;	266,0;	0,0;	0,0
707,70947265625;	275,0;	0,0;	0,0
707,75341796875;	279,0;	0,0;	0,0
707,7973022460938;	253,5;	0,0;	0,0
707,84130859375;	282,75;	0,0;	0,0
707,8851928710938;	263,5;	0,0;	0,0
707,9290771484375;	244,0;	0,0;	0,0
707,9729614257812;	266,5;	0,0;	0,0
708,016845703125;	261,25;	0,0;	0,0
708,0606079101562;	265,75;	0,0;	0,0
708,1044921875;	274,25;	0,0;	0,0
708,1482543945312;	245,0;	0,0;	0,0
708,1920166015625;	265,25;	0,0;	0,0
708,2359008789062;	258,0;	0,0;	0,0
708,2796020507812;	272,75;	0,0;	0,0
708,3233032226562;	274,5;	0,0;	0,0
708,3670654296875;	263,0;	0,0;	0,0
708,4107055664062;	283,5;	0,0;	0,0
708,4544067382812;	256,5;	0,0;	0,0
708,4981079101562;	266,75;	0,0;	0,0
708,541748046875;	273,75;	0,0;	0,0
708,5853881835938;	257,0;	0,0;	0,0
708,6289672851562;	272,75;	0,0;	0,0
708,6725463867188;	290,75;	0,0;	0,0
708,7161865234375;	263,25;	0,0;	0,0
708,7598266601562;	249,25;	0,0;	0,0
708,8032836914062;	274,0;	0,0;	0,0
708,8468627929688;	271,25;	0,0;	0,0
708,8903198242188;	262,25;	0,0;	0,0
708,933837890625;	274,5;	0,0;	0,0
708,977294921875;	278,0;	0,0;	0,0
709,020751953125;	278,0;	0,0;	0,0
709,064208984375;	287,0;	0,0;	0,0
709,107666015625;	262,5;	0,0;	0,0
709,1510009765625;	256,25;	0,0;	0,0
709,1943969726562;	265,5;	0,0;	0,0
709,23779296875;	260,0;	0,0;	0,0
709,2811279296875;	254,0;	0,0;	0,0
709,324462890625;	254,75;	0,0;	0,0
709,3678588867188;	260,5;	0,0;	0,0
709,4111328125;	250,75;	0,0;	0,0
709,4544067382812;	286,0;	0,0;	0,0
709,4977416992188;	269,5;	0,0;	0,0
709,5409545898438;	262,25;	0,0;	0,0
709,5841674804688;	272,75;	0,0;	0,0
709,6273803710938;	255,75;	0,0;	0,0
709,6705932617188;	252,5;	0,0;	0,0
709,7138061523438;	268,25;	0,0;	0,0
709,7570190429688;	249,0;	0,0;	0,0
709,8001098632812;	270,75;	0,0;	0,0
709,84326171875;	248,75;	0,0;	0,0
709,8863525390625;	252,25;	0,0;	0,0
709,929443359375;	263,5;	0,0;	0,0
709,9725952148438;	256,5;	0,0;	0,0
710,015625;	240,25;	0,0;	0,0
710,0586547851562;	268,25;	0,0;	0,0
710,1016845703125;	236,5;	0,0;	0,0
710,1446533203125;	261,25;	0,0;	0,0
710,1876831054688;	278,25;	0,0;	0,0
710,230712890625;	285,5;	0,0;	0,0
710,2736206054688;	258,5;	0,0;	0,0
710,3165893554688;	275,25;	0,0;	0,0
710,3594970703125;	252,0;	0,0;	0,0
710,4024047851562;	277,0;	0,0;	0,0
710,4453125;	266,75;	0,0;	0,0
710,4882202148438;	261,25;	0,0;	0,0
710,5310668945312;	251,0;	0,0;	0,0
710,5738525390625;	257,5;	0,0;	0,0
710,61669921875;	279,0;	0,0;	0,0
710,6594848632812;	272,25;	0,0;	0,0
710,7023315429688;	256,0;	0,0;	0,0
710,7450561523438;	268,5;	0,0;	0,0
710,7877807617188;	261,25;	0,0;	0,0
710,83056640625;	237,5;	0,0;	0,0
710,873291015625;	258,5;	0,0;	0,0
710,9159545898438;	246,5;	0,0;	0,0
710,9586791992188;	257,75;	0,0;	0,0
711,0012817382812;	274,0;	0,0;	0,0
711,0439453125;	251,75;	0,0;	0,0
711,0865478515625;	250,75;	0,0;	0,0
711,1292114257812;	260,75;	0,0;	0,0
711,1718139648438;	250,75;	0,0;	0,0
711,2144165039062;	253,0;	0,0;	0,0
711,2568969726562;	272,75;	0,0;	0,0
711,2994995117188;	247,25;	0,0;	0,0
711,342041015625;	254,25;	0,0;	0,0
711,384521484375;	267,25;	0,0;	0,0
711,4270629882812;	255,5;	0,0;	0,0
711,469482421875;	254,75;	0,0;	0,0
711,511962890625;	274,5;	0,0;	0,0
711,5543823242188;	256,5;	0,0;	0,0
711,5968017578125;	264,5;	0,0;	0,0
711,6392211914062;	260,25;	0,0;	0,0
711,681640625;	261,25;	0,0;	0,0
711,7239990234375;	268,75;	0,0;	0,0
711,766357421875;	261,25;	0,0;	0,0
711,8087158203125;	250,75;	0,0;	0,0
711,8510131835938;	253,0;	0,0;	0,0
711,893310546875;	269,5;	0,0;	0,0
711,9356689453125;	267,25;	0,0;	0,0
711,9779052734375;	262,5;	0,0;	0,0
712,0201416015625;	265,75;	0,0;	0,0
712,0623168945312;	256,0;	0,0;	0,0
712,1045532226562;	240,75;	0,0;	0,0
712,1467895507812;	229,0;	0,0;	0,0
712,1889038085938;	269,75;	0,0;	0,0
712,2311401367188;	253,25;	0,0;	0,0
712,2733154296875;	240,5;	0,0;	0,0
712,3153686523438;	263,25;	0,0;	0,0
712,3575439453125;	238,0;	0,0;	0,0
712,3995971679688;	257,25;	0,0;	0,0
712,441650390625;	253,0;	0,0;	0,0
712,4837646484375;	258,75;	0,0;	0,0
712,5258178710938;	257,5;	0,0;	0,0
712,5678100585938;	262,0;	0,0;	0,0
712,6098022460938;	259,0;	0,0;	0,0
712,6517944335938;	263,5;	0,0;	0,0
712,6937255859375;	247,75;	0,0;	0,0
712,7357177734375;	286,25;	0,0;	0,0
712,7776489257812;	275,0;	0,0;	0,0
712,819580078125;	272,0;	0,0;	0,0
712,8615112304688;	261,25;	0,0;	0,0
712,9033813476562;	278,25;	0,0;	0,0
712,9452514648438;	267,5;	0,0;	0,0
712,9871215820312;	262,5;	0,0;	0,0
713,0289306640625;	300,5;	0,0;	0,0
713,0707397460938;	297,0;	0,0;	0,0
713,1126098632812;	280,0;	0,0;	0,0
713,154296875;	277,25;	0,0;	0,0
713,1961059570312;	255,25;	0,0;	0,0
713,2378540039062;	258,25;	0,0;	0,0
713,279541015625;	262,5;	0,0;	0,0
713,3212890625;	263,0;	0,0;	0,0
713,363037109375;	277,5;	0,0;	0,0
713,4046630859375;	266,0;	0,0;	0,0
713,4463500976562;	255,0;	0,0;	0,0
713,4879150390625;	254,75;	0,0;	0,0
713,5296020507812;	252,0;	0,0;	0,0
713,5712280273438;	250,75;	0,0;	0,0
713,6128540039062;	238,0;	0,0;	0,0
713,6543579101562;	253,5;	0,0;	0,0
713,6959228515625;	247,25;	0,0;	0,0
713,7374267578125;	251,0;	0,0;	0,0
713,7789916992188;	251,75;	0,0;	0,0
713,8204345703125;	247,5;	0,0;	0,0
713,8619384765625;	252,25;	0,0;	0,0
713,9034423828125;	244,0;	0,0;	0,0
713,9448852539062;	263,0;	0,0;	0,0
713,9862670898438;	273,25;	0,0;	0,0
714,0277099609375;	269,25;	0,0;	0,0
714,0691528320312;	257,0;	0,0;	0,0
714,1104736328125;	280,5;	0,0;	0,0
714,1519165039062;	268,5;	0,0;	0,0
714,1931762695312;	270,0;	0,0;	0,0
714,2345581054688;	256,5;	0,0;	0,0
714,27587890625;	254,0;	0,0;	0,0
714,3171997070312;	245,25;	0,0;	0,0
714,3583984375;	270,75;	0,0;	0,0
714,3997192382812;	277,5;	0,0;	0,0
714,44091796875;	282,75;	0,0;	0,0
714,4821166992188;	272,0;	0,0;	0,0
714,5233764648438;	278,0;	0,0;	0,0
714,5645141601562;	256,25;	0,0;	0,0
714,6056518554688;	285,25;	0,0;	0,0
714,6469116210938;	275,75;	0,0;	0,0
714,68798828125;	250,5;	0,0;	0,0
714,7291259765625;	333,0;	0,0;	0,0
714,7702026367188;	357,5;	0,0;	0,0
714,811279296875;	301,0;	0,0;	0,0
714,8523559570312;	270,25;	0,0;	0,0
714,8933715820312;	259,75;	0,0;	0,0
714,9344482421875;	271,5;	0,0;	0,0
714,9754638671875;	248,75;	0,0;	0,0
715,0164794921875;	254,0;	0,0;	0,0
715,0574340820312;	259,0;	0,0;	0,0
715,0984497070312;	229,75;	0,0;	0,0
715,1393432617188;	248,75;	0,0;	0,0
715,1802978515625;	251,25;	0,0;	0,0
715,22119140625;	263,5;	0,0;	0,0
715,2620239257812;	260,5;	0,0;	0,0
715,3029174804688;	255,25;	0,0;	0,0
715,3438110351562;	251,25;	0,0;	0,0
715,3845825195312;	261,0;	0,0;	0,0
715,4254760742188;	255,25;	0,0;	0,0
715,4662475585938;	270,25;	0,0;	0,0
715,5070190429688;	293,5;	0,0;	0,0
715,5477905273438;	306,0;	0,0;	0,0
715,5885620117188;	304,0;	0,0;	0,0
715,6293334960938;	354,5;	0,0;	0,0
715,6700439453125;	328,5;	0,0;	0,0
715,7107543945312;	317,25;	0,0;	0,0
715,7513427734375;	317,5;	0,0;	0,0
715,7920532226562;	261,5;	0,0;	0,0
715,8327026367188;	294,25;	0,0;	0,0
715,873291015625;	266,25;	0,0;	0,0
715,9139404296875;	250,0;	0,0;	0,0
715,9545288085938;	261,25;	0,0;	0,0
715,9951171875;	239,75;	0,0;	0,0
716,0357055664062;	265,0;	0,0;	0,0
716,0762329101562;	258,5;	0,0;	0,0
716,1167602539062;	269,5;	0,0;	0,0
716,1572875976562;	244,5;	0,0;	0,0
716,1976928710938;	291,75;	0,0;	0,0
716,2382202148438;	263,0;	0,0;	0,0
716,2786865234375;	282,25;	0,0;	0,0
716,319091796875;	259,75;	0,0;	0,0
716,3595581054688;	294,75;	0,0;	0,0
716,3999633789062;	344,25;	0,0;	0,0
716,4402465820312;	295,5;	0,0;	0,0
716,480712890625;	270,5;	0,0;	0,0
716,52099609375;	250,75;	0,0;	0,0
716,5613403320312;	255,25;	0,0;	0,0
716,6016845703125;	249,5;	0,0;	0,0
716,6419677734375;	251,75;	0,0;	0,0
716,6822509765625;	247,75;	0,0;	0,0
716,7224731445312;	274,75;	0,0;	0,0
716,7626953125;	247,0;	0,0;	0,0
716,802978515625;	245,25;	0,0;	0,0
716,8432006835938;	237,75;	0,0;	0,0
716,88330078125;	270,25;	0,0;	0,0
716,9235229492188;	257,75;	0,0;	0,0
716,9636840820312;	230,0;	0,0;	0,0
717,0038452148438;	254,5;	0,0;	0,0
717,0439453125;	248,25;	0,0;	0,0
717,0840454101562;	250,5;	0,0;	0,0
717,1241455078125;	238,25;	0,0;	0,0
717,1641845703125;	253,0;	0,0;	0,0
717,2042236328125;	246,75;	0,0;	0,0
717,2442626953125;	231,0;	0,0;	0,0
717,2843017578125;	235,75;	0,0;	0,0
717,32421875;	257,5;	0,0;	0,0
717,3642578125;	269,5;	0,0;	0,0
717,4042358398438;	262,25;	0,0;	0,0
717,4441528320312;	245,0;	0,0;	0,0
717,484130859375;	259,75;	0,0;	0,0
717,5240478515625;	277,75;	0,0;	0,0
717,5638427734375;	270,25;	0,0;	0,0
717,603759765625;	246,5;	0,0;	0,0
717,6436157226562;	243,0;	0,0;	0,0
717,6834716796875;	270,25;	0,0;	0,0
717,7232666015625;	263,75;	0,0;	0,0
717,7631225585938;	260,5;	0,0;	0,0
717,8028564453125;	259,25;	0,0;	0,0
717,8426513671875;	251,0;	0,0;	0,0
717,8823852539062;	264,0;	0,0;	0,0
717,922119140625;	243,25;	0,0;	0,0
717,9618530273438;	252,25;	0,0;	0,0
718,0015869140625;	227,0;	0,0;	0,0
718,0411987304688;	258,5;	0,0;	0,0
718,0808715820312;	267,5;	0,0;	0,0
718,1204833984375;	254,5;	0,0;	0,0
718,16015625;	245,0;	0,0;	0,0
718,1998291015625;	271,5;	0,0;	0,0
718,2393188476562;	246,25;	0,0;	0,0
718,2789306640625;	258,25;	0,0;	0,0
718,3185424804688;	247,25;	0,0;	0,0
718,3579711914062;	245,5;	0,0;	0,0
718,3975830078125;	242,25;	0,0;	0,0
718,4370727539062;	265,5;	0,0;	0,0
718,4765625;	237,5;	0,0;	0,0
718,5159912109375;	276,0;	0,0;	0,0
718,555419921875;	272,75;	0,0;	0,0
718,5948486328125;	308,5;	0,0;	0,0
718,6343383789062;	323,25;	0,0;	0,0
718,6737060546875;	369,75;	0,0;	0,0
718,7130737304688;	374,0;	0,0;	0,0
718,75244140625;	272,25;	0,0;	0,0
718,791748046875;	269,75;	0,0;	0,0
718,8311157226562;	282,5;	0,0;	0,0
718,8704223632812;	246,75;	0,0;	0,0
718,90966796875;	258,0;	0,0;	0,0
718,948974609375;	241,0;	0,0;	0,0
718,98828125;	241,25;	0,0;	0,0
719,0274047851562;	238,25;	0,0;	0,0
719,0667114257812;	229,75;	0,0;	0,0
719,1058959960938;	260,0;	0,0;	0,0
719,1450805664062;	230,5;	0,0;	0,0
719,1842651367188;	254,0;	0,0;	0,0
719,223388671875;	230,0;	0,0;	0,0
719,2625122070312;	240,75;	0,0;	0,0
719,3016357421875;	243,0;	0,0;	0,0
719,3407592773438;	236,75;	0,0;	0,0
719,3797607421875;	260,5;	0,0;	0,0
719,4188842773438;	238,5;	0,0;	0,0
719,4578857421875;	243,75;	0,0;	0,0
719,4969482421875;	245,5;	0,0;	0,0
719,5359497070312;	248,75;	0,0;	0,0
719,5748901367188;	234,25;	0,0;	0,0
719,6139526367188;	258,75;	0,0;	0,0
719,65283203125;	243,75;	0,0;	0,0
719,6917724609375;	238,25;	0,0;	0,0
719,7307739257812;	228,25;	0,0;	0,0
719,7696533203125;	242,0;	0,0;	0,0
719,8085327148438;	239,25;	0,0;	0,0
719,8473510742188;	230,25;	0,0;	0,0
719,8862915039062;	240,5;	0,0;	0,0
719,925048828125;	241,0;	0,0;	0,0
719,9638671875;	226,5;	0,0;	0,0
720,002685546875;	238,0;	0,0;	0,0
720,0413818359375;	247,0;	0,0;	0,0
720,0802001953125;	241,75;	0,0;	0,0
720,1189575195312;	260,5;	0,0;	0,0
720,1576538085938;	298,75;	0,0;	0,0
720,1963500976562;	265,0;	0,0;	0,0
720,2350463867188;	246,5;	0,0;	0,0
720,2737426757812;	238,25;	0,0;	0,0
720,3124389648438;	248,75;	0,0;	0,0
720,3509521484375;	240,75;	0,0;	0,0
720,3896484375;	232,5;	0,0;	0,0
720,4282836914062;	246,25;	0,0;	0,0
720,466796875;	262,5;	0,0;	0,0
720,5054321289062;	262,75;	0,0;	0,0
720,5439453125;	266,75;	0,0;	0,0
720,5824584960938;	294,25;	0,0;	0,0
720,6210327148438;	272,0;	0,0;	0,0
720,6594848632812;	309,75;	0,0;	0,0
720,6979370117188;	313,75;	0,0;	0,0
720,7363891601562;	295,25;	0,0;	0,0
720,7747802734375;	286,5;	0,0;	0,0
720,813232421875;	235,0;	0,0;	0,0
720,8516845703125;	229,25;	0,0;	0,0
720,8900146484375;	235,75;	0,0;	0,0
720,928466796875;	257,5;	0,0;	0,0
720,9668579101562;	239,25;	0,0;	0,0
721,0050659179688;	237,0;	0,0;	0,0
721,04345703125;	232,0;	0,0;	0,0
721,0817260742188;	244,75;	0,0;	0,0
721,1199951171875;	219,25;	0,0;	0,0
721,1582641601562;	255,0;	0,0;	0,0
721,1964721679688;	221,5;	0,0;	0,0
721,2347412109375;	252,0;	0,0;	0,0
721,2730102539062;	227,25;	0,0;	0,0
721,3112182617188;	261,5;	0,0;	0,0
721,3493041992188;	246,5;	0,0;	0,0
721,3875122070312;	235,25;	0,0;	0,0
721,4255981445312;	243,0;	0,0;	0,0
721,4637451171875;	217,0;	0,0;	0,0
721,5018310546875;	231,75;	0,0;	0,0
721,5399780273438;	237,25;	0,0;	0,0
721,5780029296875;	236,5;	0,0;	0,0
721,6160888671875;	232,5;	0,0;	0,0
721,654052734375;	235,0;	0,0;	0,0
721,6920776367188;	242,75;	0,0;	0,0
721,7301635742188;	251,5;	0,0;	0,0
721,76806640625;	244,25;	0,0;	0,0
721,8060302734375;	236,75;	0,0;	0,0
721,8439331054688;	248,0;	0,0;	0,0
721,8818359375;	243,25;	0,0;	0,0
721,9197998046875;	248,25;	0,0;	0,0
721,9577026367188;	242,5;	0,0;	0,0
721,9955444335938;	263,75;	0,0;	0,0
722,0333862304688;	233,5;	0,0;	0,0
722,0712280273438;	232,5;	0,0;	0,0
722,1090698242188;	251,5;	0,0;	0,0
722,1468505859375;	241,75;	0,0;	0,0
722,1846923828125;	210,25;	0,0;	0,0
722,222412109375;	241,75;	0,0;	0,0
722,2601928710938;	241,25;	0,0;	0,0
722,2978515625;	238,25;	0,0;	0,0
722,3355712890625;	223,25;	0,0;	0,0
722,3733520507812;	248,5;	0,0;	0,0
722,4109497070312;	255,25;	0,0;	0,0
722,4486694335938;	245,5;	0,0;	0,0
722,4862670898438;	242,5;	0,0;	0,0
722,5238647460938;	229,5;	0,0;	0,0
722,5615234375;	262,75;	0,0;	0,0
722,59912109375;	236,5;	0,0;	0,0
722,6365966796875;	247,75;	0,0;	0,0
722,6741943359375;	252,25;	0,0;	0,0
722,711669921875;	243,75;	0,0;	0,0
722,7492065429688;	211,25;	0,0;	0,0
722,7867431640625;	224,25;	0,0;	0,0
722,82421875;	240,25;	0,0;	0,0
722,8616943359375;	241,0;	0,0;	0,0
722,899169921875;	229,75;	0,0;	0,0
722,9364624023438;	222,5;	0,0;	0,0
722,9739379882812;	214,5;	0,0;	0,0
723,0113525390625;	227,0;	0,0;	0,0
723,0487060546875;	236,5;	0,0;	0,0
723,0860595703125;	226,25;	0,0;	0,0
723,1234130859375;	239,75;	0,0;	0,0
723,16064453125;	230,25;	0,0;	0,0
723,1980590820312;	227,0;	0,0;	0,0
723,2353515625;	222,75;	0,0;	0,0
723,2725219726562;	222,0;	0,0;	0,0
723,309814453125;	234,75;	0,0;	0,0
723,3469848632812;	240,0;	0,0;	0,0
723,3842163085938;	233,5;	0,0;	0,0
723,4214477539062;	239,75;	0,0;	0,0
723,4586181640625;	225,5;	0,0;	0,0
723,4957885742188;	238,25;	0,0;	0,0
723,532958984375;	215,5;	0,0;	0,0
723,5700073242188;	242,25;	0,0;	0,0
723,6071166992188;	216,75;	0,0;	0,0
723,644287109375;	233,25;	0,0;	0,0
723,6813354492188;	228,5;	0,0;	0,0
723,7183837890625;	229,25;	0,0;	0,0
723,75537109375;	264,0;	0,0;	0,0
723,7923583984375;	241,25;	0,0;	0,0
723,8294067382812;	221,0;	0,0;	0,0
723,8663940429688;	224,75;	0,0;	0,0
723,9033203125;	223,0;	0,0;	0,0
723,9402465820312;	243,0;	0,0;	0,0
723,9771728515625;	249,0;	0,0;	0,0
724,0140991210938;	215,5;	0,0;	0,0
724,051025390625;	227,75;	0,0;	0,0
724,087890625;	231,5;	0,0;	0,0
724,1246337890625;	230,0;	0,0;	0,0
724,1615600585938;	231,0;	0,0;	0,0
724,1983032226562;	240,25;	0,0;	0,0
724,235107421875;	223,75;	0,0;	0,0
724,27197265625;	223,25;	0,0;	0,0
724,3087768554688;	234,0;	0,0;	0,0
724,345458984375;	227,5;	0,0;	0,0
724,3821411132812;	233,0;	0,0;	0,0
724,4188842773438;	232,25;	0,0;	0,0
724,45556640625;	233,0;	0,0;	0,0
724,4922485351562;	256,0;	0,0;	0,0
724,5288696289062;	238,25;	0,0;	0,0
724,5655517578125;	227,5;	0,0;	0,0
724,6021118164062;	239,0;	0,0;	0,0
724,6387329101562;	235,5;	0,0;	0,0
724,6753540039062;	228,0;	0,0;	0,0
724,7119140625;	237,5;	0,0;	0,0
724,7484741210938;	216,75;	0,0;	0,0
724,7849731445312;	239,0;	0,0;	0,0
724,8214721679688;	225,25;	0,0;	0,0
724,8579711914062;	216,0;	0,0;	0,0
724,8944702148438;	214,25;	0,0;	0,0
724,930908203125;	244,25;	0,0;	0,0
724,9673461914062;	251,0;	0,0;	0,0
725,0037841796875;	233,0;	0,0;	0,0
725,0401000976562;	224,0;	0,0;	0,0
725,0765991210938;	234,5;	0,0;	0,0
725,1129760742188;	217,5;	0,0;	0,0
725,1492919921875;	221,5;	0,0;	0,0
725,1856079101562;	229,5;	0,0;	0,0
725,221923828125;	210,5;	0,0;	0,0
725,2582397460938;	223,25;	0,0;	0,0
725,2945556640625;	250,75;	0,0;	0,0
725,3307495117188;	241,75;	0,0;	0,0
725,3670043945312;	231,25;	0,0;	0,0
725,4032592773438;	252,75;	0,0;	0,0
725,4393920898438;	223,0;	0,0;	0,0
725,4756469726562;	229,25;	0,0;	0,0
725,5117797851562;	226,25;	0,0;	0,0
725,5479736328125;	245,5;	0,0;	0,0
725,5840454101562;	230,75;	0,0;	0,0
725,6201782226562;	252,0;	0,0;	0,0
725,65625;	217,0;	0,0;	0,0
725,6923828125;	207,5;	0,0;	0,0
725,7284545898438;	221,75;	0,0;	0,0
725,7644653320312;	212,75;	0,0;	0,0
725,800537109375;	226,5;	0,0;	0,0
725,8365478515625;	224,5;	0,0;	0,0
725,8724975585938;	220,25;	0,0;	0,0
725,908447265625;	244,25;	0,0;	0,0
725,9444580078125;	230,25;	0,0;	0,0
725,9803466796875;	204,75;	0,0;	0,0
726,0162353515625;	228,75;	0,0;	0,0
726,0521240234375;	233,0;	0,0;	0,0
726,0880126953125;	234,5;	0,0;	0,0
726,1239624023438;	221,5;	0,0;	0,0
726,1597900390625;	210,75;	0,0;	0,0
726,195556640625;	210,75;	0,0;	0,0
726,2314453125;	249,0;	0,0;	0,0
726,2671508789062;	233,75;	0,0;	0,0
726,302978515625;	226,25;	0,0;	0,0
726,3387451171875;	225,25;	0,0;	0,0
726,3744506835938;	209,25;	0,0;	0,0
726,41015625;	231,5;	0,0;	0,0
726,4459228515625;	215,25;	0,0;	0,0
726,4815063476562;	230,5;	0,0;	0,0
726,5172119140625;	230,0;	0,0;	0,0
726,5529174804688;	219,0;	0,0;	0,0
726,5884399414062;	227,75;	0,0;	0,0
726,6240844726562;	229,5;	0,0;	0,0
726,6596069335938;	226,25;	0,0;	0,0
726,6952514648438;	217,0;	0,0;	0,0
726,7308349609375;	238,0;	0,0;	0,0
726,766357421875;	223,25;	0,0;	0,0
726,8018798828125;	215,25;	0,0;	0,0
726,83740234375;	234,5;	0,0;	0,0
726,8728637695312;	231,5;	0,0;	0,0
726,9083251953125;	255,5;	0,0;	0,0
726,9437866210938;	236,0;	0,0;	0,0
726,9791870117188;	226,5;	0,0;	0,0
727,0146484375;	236,25;	0,0;	0,0
727,0499877929688;	240,75;	0,0;	0,0
727,0853881835938;	222,25;	0,0;	0,0
727,1207885742188;	231,5;	0,0;	0,0
727,1560668945312;	220,25;	0,0;	0,0
727,19140625;	228,0;	0,0;	0,0
727,2266845703125;	209,75;	0,0;	0,0
727,261962890625;	224,0;	0,0;	0,0
727,2972412109375;	223,25;	0,0;	0,0
727,33251953125;	0,0;	0,0;	0,0
