-0.5	2.0
Integration time [ms]:	1.05
Averaging Nr. [scans]:1
Smoothing Nr. [pixels]:0
Data measured with spectrometer [name]:b'1703279U8'
Wave	;Sample	;Dark	;Reference	;Scope	
[nm]	;[counts]	;[counts]	;[counts]	
 
725,3621826171875;	386,75;	0,0;	0,0
725,4813842773438;	364,25;	0,0;	0,0
725,6005249023438;	326,0;	0,0;	0,0
725,7197265625;	346,75;	0,0;	0,0
725,8388671875;	334,0;	0,0;	0,0
725,9579467773438;	346,25;	0,0;	0,0
726,0770874023438;	354,5;	0,0;	0,0
726,1961669921875;	343,0;	0,0;	0,0
726,315185546875;	367,75;	0,0;	0,0
726,4342651367188;	370,0;	0,0;	0,0
726,5532836914062;	390,5;	0,0;	0,0
726,6723022460938;	347,25;	0,0;	0,0
726,7913208007812;	370,5;	0,0;	0,0
726,9102783203125;	360,25;	0,0;	0,0
727,0292358398438;	368,5;	0,0;	0,0
727,148193359375;	348,25;	0,0;	0,0
727,26708984375;	367,0;	0,0;	0,0
727,385986328125;	362,25;	0,0;	0,0
727,5048828125;	380,5;	0,0;	0,0
727,6237182617188;	354,75;	0,0;	0,0
727,7426147460938;	357,5;	0,0;	0,0
727,8614501953125;	378,0;	0,0;	0,0
727,9801635742188;	372,0;	0,0;	0,0
728,0989379882812;	371,25;	0,0;	0,0
728,2177124023438;	367,75;	0,0;	0,0
728,3364868164062;	357,75;	0,0;	0,0
728,4552612304688;	353,5;	0,0;	0,0
728,573974609375;	385,5;	0,0;	0,0
728,6926879882812;	361,5;	0,0;	0,0
728,8113403320312;	370,75;	0,0;	0,0
728,9299926757812;	374,25;	0,0;	0,0
729,0486450195312;	359,25;	0,0;	0,0
729,1672973632812;	392,25;	0,0;	0,0
729,285888671875;	380,25;	0,0;	0,0
729,4044799804688;	362,25;	0,0;	0,0
729,5230712890625;	371,0;	0,0;	0,0
729,6416625976562;	361,0;	0,0;	0,0
729,7601928710938;	347,0;	0,0;	0,0
729,8787231445312;	371,5;	0,0;	0,0
729,9971313476562;	350,0;	0,0;	0,0
730,1156005859375;	343,0;	0,0;	0,0
730,2340698242188;	362,0;	0,0;	0,0
730,3525390625;	376,0;	0,0;	0,0
730,470947265625;	361,25;	0,0;	0,0
730,58935546875;	408,0;	0,0;	0,0
730,707763671875;	412,0;	0,0;	0,0
730,826171875;	389,0;	0,0;	0,0
730,9445190429688;	387,0;	0,0;	0,0
731,0628662109375;	406,0;	0,0;	0,0
731,18115234375;	370,5;	0,0;	0,0
731,2994995117188;	366,5;	0,0;	0,0
731,4177856445312;	384,5;	0,0;	0,0
731,5360107421875;	394,0;	0,0;	0,0
731,654296875;	373,0;	0,0;	0,0
731,7725219726562;	351,25;	0,0;	0,0
731,8906860351562;	365,75;	0,0;	0,0
732,0088500976562;	394,75;	0,0;	0,0
732,1270141601562;	368,5;	0,0;	0,0
732,2451782226562;	392,5;	0,0;	0,0
732,3633422851562;	389,5;	0,0;	0,0
732,4814453125;	390,25;	0,0;	0,0
732,5995483398438;	396,75;	0,0;	0,0
732,7176513671875;	362,75;	0,0;	0,0
732,8357543945312;	380,25;	0,0;	0,0
732,9537963867188;	390,75;	0,0;	0,0
733,07177734375;	400,5;	0,0;	0,0
733,189697265625;	366,75;	0,0;	0,0
733,3076782226562;	388,75;	0,0;	0,0
733,4256591796875;	376,5;	0,0;	0,0
733,5436401367188;	380,75;	0,0;	0,0
733,6615600585938;	357,75;	0,0;	0,0
733,7794799804688;	373,25;	0,0;	0,0
733,8973999023438;	391,25;	0,0;	0,0
734,0152587890625;	385,25;	0,0;	0,0
734,1331176757812;	366,25;	0,0;	0,0
734,2509765625;	396,25;	0,0;	0,0
734,3687744140625;	386,0;	0,0;	0,0
734,486572265625;	368,0;	0,0;	0,0
734,6043701171875;	356,0;	0,0;	0,0
734,72216796875;	383,0;	0,0;	0,0
734,8399047851562;	387,5;	0,0;	0,0
734,9576416015625;	361,5;	0,0;	0,0
735,0753173828125;	406,0;	0,0;	0,0
735,1930541992188;	394,5;	0,0;	0,0
735,3107299804688;	392,5;	0,0;	0,0
735,4283447265625;	414,75;	0,0;	0,0
735,5460205078125;	374,75;	0,0;	0,0
735,6636352539062;	378,5;	0,0;	0,0
735,78125;	375,25;	0,0;	0,0
735,8988647460938;	375,75;	0,0;	0,0
736,016357421875;	376,75;	0,0;	0,0
736,1339111328125;	376,75;	0,0;	0,0
736,25146484375;	357,75;	0,0;	0,0
736,3690185546875;	359,0;	0,0;	0,0
736,4864501953125;	395,25;	0,0;	0,0
736,6039428710938;	394,25;	0,0;	0,0
736,7213745117188;	374,75;	0,0;	0,0
736,8388671875;	359,75;	0,0;	0,0
736,9562377929688;	373,5;	0,0;	0,0
737,0736083984375;	366,5;	0,0;	0,0
737,1910400390625;	382,5;	0,0;	0,0
737,3084106445312;	360,75;	0,0;	0,0
737,4257202148438;	380,25;	0,0;	0,0
737,5430297851562;	373,25;	0,0;	0,0
737,660400390625;	398,75;	0,0;	0,0
737,7776489257812;	379,75;	0,0;	0,0
737,8948974609375;	385,75;	0,0;	0,0
738,01220703125;	369,0;	0,0;	0,0
738,1294555664062;	390,5;	0,0;	0,0
738,24658203125;	405,75;	0,0;	0,0
738,36376953125;	393,25;	0,0;	0,0
738,48095703125;	406,75;	0,0;	0,0
738,5980834960938;	389,5;	0,0;	0,0
738,7152709960938;	427,25;	0,0;	0,0
738,8323974609375;	456,75;	0,0;	0,0
738,949462890625;	436,0;	0,0;	0,0
739,0665893554688;	379,25;	0,0;	0,0
739,18359375;	401,25;	0,0;	0,0
739,3006591796875;	386,0;	0,0;	0,0
739,417724609375;	394,25;	0,0;	0,0
739,53466796875;	400,0;	0,0;	0,0
739,6517333984375;	362,5;	0,0;	0,0
739,7686767578125;	390,5;	0,0;	0,0
739,8856201171875;	408,5;	0,0;	0,0
740,0025634765625;	419,0;	0,0;	0,0
740,1195068359375;	420,0;	0,0;	0,0
740,2363891601562;	379,75;	0,0;	0,0
740,353271484375;	380,25;	0,0;	0,0
740,4701538085938;	443,25;	0,0;	0,0
740,5869750976562;	383,0;	0,0;	0,0
740,7037963867188;	388,375;	0,0;	0,0
740,8206176757812;	393,75;	0,0;	0,0
740,9373779296875;	429,5;	0,0;	0,0
741,05419921875;	494,5;	0,0;	0,0
741,1708984375;	416,5;	0,0;	0,0
741,2876586914062;	364,75;	0,0;	0,0
741,4043579101562;	366,75;	0,0;	0,0
741,5211181640625;	390,25;	0,0;	0,0
741,6377563476562;	414,75;	0,0;	0,0
741,7544555664062;	421,25;	0,0;	0,0
741,8710327148438;	464,75;	0,0;	0,0
741,9876098632812;	465,75;	0,0;	0,0
742,104248046875;	514,5;	0,0;	0,0
742,2208251953125;	784,25;	0,0;	0,0
742,33740234375;	1021,0;	0,0;	0,0
742,4539794921875;	690,25;	0,0;	0,0
742,5704956054688;	487,25;	0,0;	0,0
742,68701171875;	432,25;	0,0;	0,0
742,8035278320312;	394,5;	0,0;	0,0
742,9199829101562;	417,5;	0,0;	0,0
743,036376953125;	413,5;	0,0;	0,0
743,1528930664062;	402,0;	0,0;	0,0
743,2692260742188;	395,0;	0,0;	0,0
743,3856201171875;	434,25;	0,0;	0,0
743,5020141601562;	414,25;	0,0;	0,0
743,6183471679688;	447,75;	0,0;	0,0
743,7346801757812;	438,5;	0,0;	0,0
743,8510131835938;	548,5;	0,0;	0,0
743,9673461914062;	706,5;	0,0;	0,0
744,0835571289062;	1151,0;	0,0;	0,0
744,1998901367188;	1653,75;	0,0;	0,0
744,3161010742188;	1047,25;	0,0;	0,0
744,4323120117188;	698,25;	0,0;	0,0
744,548583984375;	610,75;	0,0;	0,0
744,664794921875;	505,0;	0,0;	0,0
744,7809448242188;	430,25;	0,0;	0,0
744,8970947265625;	404,0;	0,0;	0,0
745,0132446289062;	408,0;	0,0;	0,0
745,1293334960938;	369,75;	0,0;	0,0
745,2454223632812;	403,5;	0,0;	0,0
745,3615112304688;	431,0;	0,0;	0,0
745,4776000976562;	376,0;	0,0;	0,0
745,5936279296875;	414,0;	0,0;	0,0
745,7096557617188;	369,25;	0,0;	0,0
745,82568359375;	393,25;	0,0;	0,0
745,941650390625;	381,0;	0,0;	0,0
746,0576171875;	418,5;	0,0;	0,0
746,173583984375;	448,0;	0,0;	0,0
746,28955078125;	474,0;	0,0;	0,0
746,4054565429688;	530,0;	0,0;	0,0
746,5213012695312;	659,5;	0,0;	0,0
746,63720703125;	1150,25;	0,0;	0,0
746,7530517578125;	2353,5;	0,0;	0,0
746,868896484375;	1811,0;	0,0;	0,0
746,9846801757812;	894,5;	0,0;	0,0
747,1004638671875;	613,75;	0,0;	0,0
747,2162475585938;	506,5;	0,0;	0,0
747,3320922851562;	446,75;	0,0;	0,0
747,4478149414062;	475,0;	0,0;	0,0
747,5635375976562;	463,75;	0,0;	0,0
747,6792602539062;	419,25;	0,0;	0,0
747,794921875;	442,25;	0,0;	0,0
747,9105834960938;	462,75;	0,0;	0,0
748,0262451171875;	408,0;	0,0;	0,0
748,1419067382812;	438,25;	0,0;	0,0
748,2574462890625;	401,5;	0,0;	0,0
748,373046875;	401,5;	0,0;	0,0
748,488525390625;	404,75;	0,0;	0,0
748,6041259765625;	391,0;	0,0;	0,0
748,7196655273438;	399,5;	0,0;	0,0
748,835205078125;	382,75;	0,0;	0,0
748,95068359375;	384,25;	0,0;	0,0
749,066162109375;	434,25;	0,0;	0,0
749,181640625;	394,5;	0,0;	0,0
749,297119140625;	451,25;	0,0;	0,0
749,4125366210938;	630,25;	0,0;	0,0
749,5278930664062;	457,0;	0,0;	0,0
749,6432495117188;	363,5;	0,0;	0,0
749,7586669921875;	397,25;	0,0;	0,0
749,8740234375;	363,5;	0,0;	0,0
749,9893798828125;	378,0;	0,0;	0,0
750,1046752929688;	379,5;	0,0;	0,0
750,2199096679688;	369,25;	0,0;	0,0
750,335205078125;	373,5;	0,0;	0,0
750,4505004882812;	412,75;	0,0;	0,0
750,5657348632812;	384,5;	0,0;	0,0
750,680908203125;	415,75;	0,0;	0,0
750,796142578125;	391,5;	0,0;	0,0
750,9113159179688;	519,25;	0,0;	0,0
751,0264282226562;	764,25;	0,0;	0,0
751,1416015625;	504,25;	0,0;	0,0
751,2567749023438;	368,75;	0,0;	0,0
751,371826171875;	392,75;	0,0;	0,0
751,4869384765625;	367,5;	0,0;	0,0
751,6019897460938;	384,0;	0,0;	0,0
751,717041015625;	365,5;	0,0;	0,0
751,8320922851562;	354,75;	0,0;	0,0
751,9470825195312;	364,75;	0,0;	0,0
752,0620727539062;	341,25;	0,0;	0,0
752,1770629882812;	377,0;	0,0;	0,0
752,2919921875;	361,75;	0,0;	0,0
752,4069213867188;	341,25;	0,0;	0,0
752,5218505859375;	373,25;	0,0;	0,0
752,63671875;	384,0;	0,0;	0,0
752,7515869140625;	381,0;	0,0;	0,0
752,866455078125;	379,25;	0,0;	0,0
752,9813232421875;	396,5;	0,0;	0,0
753,0961303710938;	391,0;	0,0;	0,0
753,2108764648438;	386,5;	0,0;	0,0
753,32568359375;	385,5;	0,0;	0,0
753,4404296875;	397,0;	0,0;	0,0
753,55517578125;	394,25;	0,0;	0,0
753,669921875;	382,0;	0,0;	0,0
753,7846069335938;	368,25;	0,0;	0,0
753,8992919921875;	356,25;	0,0;	0,0
754,0139770507812;	362,0;	0,0;	0,0
754,128662109375;	381,0;	0,0;	0,0
754,2432250976562;	342,5;	0,0;	0,0
754,3578491210938;	361,5;	0,0;	0,0
754,4724731445312;	375,0;	0,0;	0,0
754,5870361328125;	391,0;	0,0;	0,0
754,7015991210938;	378,0;	0,0;	0,0
754,8161010742188;	340,75;	0,0;	0,0
754,9306640625;	368,75;	0,0;	0,0
755,045166015625;	399,5;	0,0;	0,0
755,1596069335938;	382,0;	0,0;	0,0
755,2740478515625;	369,5;	0,0;	0,0
755,3885498046875;	389,75;	0,0;	0,0
755,5029907226562;	361,25;	0,0;	0,0
755,6173706054688;	397,75;	0,0;	0,0
755,7317504882812;	387,0;	0,0;	0,0
755,8460693359375;	409,75;	0,0;	0,0
755,96044921875;	373,75;	0,0;	0,0
756,0748291015625;	371,0;	0,0;	0,0
756,1890869140625;	334,25;	0,0;	0,0
756,3034057617188;	348,5;	0,0;	0,0
756,4176635742188;	392,75;	0,0;	0,0
756,5319213867188;	356,75;	0,0;	0,0
756,6461181640625;	387,5;	0,0;	0,0
756,7603759765625;	382,0;	0,0;	0,0
756,8745727539062;	412,25;	0,0;	0,0
756,9887084960938;	350,75;	0,0;	0,0
757,1029052734375;	363,25;	0,0;	0,0
757,217041015625;	357,25;	0,0;	0,0
757,3311157226562;	385,0;	0,0;	0,0
757,4452514648438;	349,0;	0,0;	0,0
757,559326171875;	356,25;	0,0;	0,0
757,6734008789062;	368,0;	0,0;	0,0
757,7874145507812;	379,5;	0,0;	0,0
757,9013671875;	357,5;	0,0;	0,0
758,0154418945312;	347,5;	0,0;	0,0
758,1293334960938;	376,5;	0,0;	0,0
758,2433471679688;	398,0;	0,0;	0,0
758,3572998046875;	411,25;	0,0;	0,0
758,4712524414062;	461,75;	0,0;	0,0
758,5850830078125;	437,75;	0,0;	0,0
758,698974609375;	374,25;	0,0;	0,0
758,8128662109375;	370,5;	0,0;	0,0
758,9267578125;	370,0;	0,0;	0,0
759,04052734375;	359,25;	0,0;	0,0
759,1543579101562;	385,75;	0,0;	0,0
759,2681884765625;	378,0;	0,0;	0,0
759,3819580078125;	402,25;	0,0;	0,0
759,4956665039062;	366,5;	0,0;	0,0
759,6094360351562;	388,5;	0,0;	0,0
759,72314453125;	376,75;	0,0;	0,0
759,8368530273438;	378,0;	0,0;	0,0
759,9505615234375;	358,5;	0,0;	0,0
760,064208984375;	377,75;	0,0;	0,0
760,1778564453125;	376,75;	0,0;	0,0
760,2914428710938;	363,25;	0,0;	0,0
760,4050903320312;	365,0;	0,0;	0,0
760,5186157226562;	378,25;	0,0;	0,0
760,6322021484375;	403,75;	0,0;	0,0
760,7457275390625;	378,25;	0,0;	0,0
760,8593139648438;	372,0;	0,0;	0,0
760,9727783203125;	365,5;	0,0;	0,0
761,0863037109375;	354,0;	0,0;	0,0
761,1997680664062;	367,75;	0,0;	0,0
761,313232421875;	369,5;	0,0;	0,0
761,4266357421875;	369,0;	0,0;	0,0
761,5400390625;	377,75;	0,0;	0,0
761,6534423828125;	384,5;	0,0;	0,0
761,766845703125;	387,75;	0,0;	0,0
761,880126953125;	400,75;	0,0;	0,0
761,9935302734375;	423,5;	0,0;	0,0
762,1068115234375;	382,25;	0,0;	0,0
762,2200927734375;	371,25;	0,0;	0,0
762,3333740234375;	371,25;	0,0;	0,0
762,4466552734375;	414,75;	0,0;	0,0
762,5598754882812;	406,75;	0,0;	0,0
762,673095703125;	377,0;	0,0;	0,0
762,7863159179688;	410,0;	0,0;	0,0
762,8994750976562;	373,0;	0,0;	0,0
763,0126342773438;	374,25;	0,0;	0,0
763,1257934570312;	398,25;	0,0;	0,0
763,2388916015625;	435,5;	0,0;	0,0
763,3519897460938;	422,5;	0,0;	0,0
763,465087890625;	448,5;	0,0;	0,0
763,578125;	423,5;	0,0;	0,0
763,691162109375;	412,0;	0,0;	0,0
763,80419921875;	397,75;	0,0;	0,0
763,917236328125;	434,75;	0,0;	0,0
764,0302124023438;	417,75;	0,0;	0,0
764,1431884765625;	442,75;	0,0;	0,0
764,256103515625;	449,0;	0,0;	0,0
764,3690795898438;	468,75;	0,0;	0,0
764,4819946289062;	504,75;	0,0;	0,0
764,5948486328125;	482,25;	0,0;	0,0
764,707763671875;	494,25;	0,0;	0,0
764,820556640625;	534,0;	0,0;	0,0
764,9334106445312;	544,25;	0,0;	0,0
765,0462646484375;	601,25;	0,0;	0,0
765,1590576171875;	624,5;	0,0;	0,0
765,2718505859375;	690,0;	0,0;	0,0
765,384521484375;	729,0;	0,0;	0,0
765,497314453125;	843,5;	0,0;	0,0
765,6100463867188;	1027,5;	0,0;	0,0
765,7227783203125;	1248,25;	0,0;	0,0
765,8353881835938;	1674,0;	0,0;	0,0
765,9480590820312;	2345,0;	0,0;	0,0
766,0607299804688;	3891,75;	0,0;	0,0
766,17333984375;	7288,25;	0,0;	0,0
766,2859497070312;	14537,5;	0,0;	0,0
766,3984985351562;	16383,75;	0,0;	0,0
766,5111083984375;	14500,0;	0,0;	0,0
766,6236572265625;	6610,75;	0,0;	0,0
766,7361450195312;	3643,0;	0,0;	0,0
766,8486938476562;	2301,75;	0,0;	0,0
766,961181640625;	1650,75;	0,0;	0,0
767,0736694335938;	1273,5;	0,0;	0,0
767,1860961914062;	1063,25;	0,0;	0,0
767,2984619140625;	905,0;	0,0;	0,0
767,4109497070312;	789,75;	0,0;	0,0
767,5233154296875;	761,75;	0,0;	0,0
767,6357421875;	710,25;	0,0;	0,0
767,748046875;	651,5;	0,0;	0,0
767,8602905273438;	636,5;	0,0;	0,0
767,97265625;	587,75;	0,0;	0,0
768,0849609375;	519,25;	0,0;	0,0
768,1972045898438;	597,5;	0,0;	0,0
768,3094482421875;	532,25;	0,0;	0,0
768,4216918945312;	569,25;	0,0;	0,0
768,533935546875;	574,25;	0,0;	0,0
768,6461181640625;	589,5;	0,0;	0,0
768,75830078125;	574,25;	0,0;	0,0
768,8704223632812;	662,5;	0,0;	0,0
768,9826049804688;	703,5;	0,0;	0,0
769,0947265625;	759,5;	0,0;	0,0
769,2068481445312;	935,25;	0,0;	0,0
769,3189086914062;	1298,0;	0,0;	0,0
769,4309692382812;	1939,75;	0,0;	0,0
769,5430297851562;	3537,25;	0,0;	0,0
769,655029296875;	7813,25;	0,0;	0,0
769,7670288085938;	15991,0;	0,0;	0,0
769,8790283203125;	14187,5;	0,0;	0,0
769,990966796875;	5411,25;	0,0;	0,0
770,1029663085938;	2523,5;	0,0;	0,0
770,2149047851562;	1605,5;	0,0;	0,0
770,3267822265625;	1162,5;	0,0;	0,0
770,4385986328125;	880,25;	0,0;	0,0
770,5504760742188;	818,0;	0,0;	0,0
770,662353515625;	671,75;	0,0;	0,0
770,7742309570312;	611,25;	0,0;	0,0
770,8860473632812;	608,75;	0,0;	0,0
770,997802734375;	551,0;	0,0;	0,0
771,1095581054688;	483,0;	0,0;	0,0
771,2213134765625;	457,75;	0,0;	0,0
771,3330078125;	460,0;	0,0;	0,0
771,4447631835938;	440,75;	0,0;	0,0
771,5564575195312;	474,0;	0,0;	0,0
771,6680908203125;	457,0;	0,0;	0,0
771,77978515625;	435,25;	0,0;	0,0
771,8914184570312;	419,5;	0,0;	0,0
772,0030517578125;	428,75;	0,0;	0,0
772,1146240234375;	394,5;	0,0;	0,0
772,2261962890625;	415,0;	0,0;	0,0
772,3377685546875;	387,0;	0,0;	0,0
772,4492797851562;	428,75;	0,0;	0,0
772,5608520507812;	404,25;	0,0;	0,0
772,6722412109375;	404,75;	0,0;	0,0
772,78369140625;	407,0;	0,0;	0,0
772,8952026367188;	399,0;	0,0;	0,0
773,0066528320312;	396,25;	0,0;	0,0
773,1181030273438;	378,5;	0,0;	0,0
773,2294921875;	369,75;	0,0;	0,0
773,3408203125;	409,0;	0,0;	0,0
773,4522094726562;	385,0;	0,0;	0,0
773,5635986328125;	381,5;	0,0;	0,0
773,6748657226562;	366,75;	0,0;	0,0
773,7861938476562;	337,75;	0,0;	0,0
773,8974609375;	380,0;	0,0;	0,0
774,0087280273438;	373,0;	0,0;	0,0
774,1199340820312;	382,75;	0,0;	0,0
774,231201171875;	371,25;	0,0;	0,0
774,3424072265625;	379,25;	0,0;	0,0
774,45361328125;	399,0;	0,0;	0,0
774,5647583007812;	396,0;	0,0;	0,0
774,6759033203125;	419,25;	0,0;	0,0
774,7870483398438;	399,0;	0,0;	0,0
774,8981323242188;	349,5;	0,0;	0,0
775,0092163085938;	359,5;	0,0;	0,0
775,1203002929688;	354,0;	0,0;	0,0
775,2313232421875;	375,0;	0,0;	0,0
775,3423461914062;	378,5;	0,0;	0,0
775,453369140625;	361,25;	0,0;	0,0
775,5643920898438;	373,25;	0,0;	0,0
775,6753540039062;	356,0;	0,0;	0,0
775,7863159179688;	383,5;	0,0;	0,0
775,897216796875;	371,25;	0,0;	0,0
776,0081176757812;	396,5;	0,0;	0,0
776,1190185546875;	397,0;	0,0;	0,0
776,2298583984375;	390,0;	0,0;	0,0
776,3407592773438;	446,25;	0,0;	0,0
776,4515991210938;	440,0;	0,0;	0,0
776,5623779296875;	484,75;	0,0;	0,0
776,6732177734375;	503,5;	0,0;	0,0
776,7839965820312;	656,5;	0,0;	0,0
776,8947143554688;	1046,0;	0,0;	0,0
777,0054931640625;	2079,5;	0,0;	0,0
777,1161499023438;	3682,75;	0,0;	0,0
777,2269287109375;	3013,75;	0,0;	0,0
777,3375854492188;	3348,25;	0,0;	0,0
777,4481201171875;	2926,0;	0,0;	0,0
777,558837890625;	1575,75;	0,0;	0,0
777,6693725585938;	755,25;	0,0;	0,0
777,7799682617188;	563,75;	0,0;	0,0
777,890625;	505,5;	0,0;	0,0
778,0011596679688;	516,5;	0,0;	0,0
778,1116943359375;	439,25;	0,0;	0,0
778,2222290039062;	400,0;	0,0;	0,0
778,3327026367188;	386,75;	0,0;	0,0
778,4431762695312;	359,25;	0,0;	0,0
778,5536499023438;	361,25;	0,0;	0,0
778,6640625;	351,5;	0,0;	0,0
778,7744750976562;	351,0;	0,0;	0,0
778,8848876953125;	384,75;	0,0;	0,0
778,9953002929688;	348,0;	0,0;	0,0
779,1056518554688;	360,0;	0,0;	0,0
779,2160034179688;	335,25;	0,0;	0,0
779,3263549804688;	360,0;	0,0;	0,0
779,4365844726562;	361,75;	0,0;	0,0
779,546875;	358,5;	0,0;	0,0
779,6571655273438;	371,0;	0,0;	0,0
779,7673950195312;	468,0;	0,0;	0,0
779,8776245117188;	903,0;	0,0;	0,0
779,9878540039062;	1144,75;	0,0;	0,0
780,0980224609375;	392,75;	0,0;	0,0
780,2081909179688;	341,0;	0,0;	0,0
780,3182983398438;	312,5;	0,0;	0,0
780,428466796875;	337,0;	0,0;	0,0
780,53857421875;	340,25;	0,0;	0,0
780,6486206054688;	354,25;	0,0;	0,0
780,7587280273438;	329,5;	0,0;	0,0
780,8687744140625;	324,75;	0,0;	0,0
780,978759765625;	319,5;	0,0;	0,0
781,0888061523438;	346,5;	0,0;	0,0
781,1987915039062;	321,5;	0,0;	0,0
781,3087768554688;	313,25;	0,0;	0,0
781,418701171875;	310,25;	0,0;	0,0
781,5286254882812;	313,75;	0,0;	0,0
781,6385498046875;	326,25;	0,0;	0,0
781,7484741210938;	316,75;	0,0;	0,0
781,8583374023438;	332,0;	0,0;	0,0
781,9681396484375;	354,0;	0,0;	0,0
782,0780029296875;	319,75;	0,0;	0,0
782,187744140625;	337,0;	0,0;	0,0
782,2975463867188;	338,25;	0,0;	0,0
782,4072875976562;	331,0;	0,0;	0,0
782,51708984375;	336,0;	0,0;	0,0
782,6267700195312;	292,75;	0,0;	0,0
782,7365112304688;	322,5;	0,0;	0,0
782,84619140625;	317,0;	0,0;	0,0
782,955810546875;	326,5;	0,0;	0,0
783,0654907226562;	386,0;	0,0;	0,0
783,1751098632812;	425,25;	0,0;	0,0
783,2847290039062;	355,25;	0,0;	0,0
783,394287109375;	310,0;	0,0;	0,0
783,50390625;	320,75;	0,0;	0,0
783,6134643554688;	331,5;	0,0;	0,0
783,7229614257812;	315,0;	0,0;	0,0
783,83251953125;	330,0;	0,0;	0,0
783,9420166015625;	322,5;	0,0;	0,0
784,0514526367188;	307,75;	0,0;	0,0
784,1609497070312;	325,25;	0,0;	0,0
784,2703247070312;	296,0;	0,0;	0,0
784,3797607421875;	288,5;	0,0;	0,0
784,4891967773438;	308,75;	0,0;	0,0
784,5985717773438;	336,75;	0,0;	0,0
784,7078857421875;	305,5;	0,0;	0,0
784,8172607421875;	318,0;	0,0;	0,0
784,9265747070312;	317,75;	0,0;	0,0
785,0358276367188;	302,25;	0,0;	0,0
785,1451416015625;	323,25;	0,0;	0,0
785,2543334960938;	315,75;	0,0;	0,0
785,3636474609375;	334,5;	0,0;	0,0
785,4728393554688;	308,25;	0,0;	0,0
785,58203125;	315,5;	0,0;	0,0
785,691162109375;	319,0;	0,0;	0,0
785,80029296875;	290,75;	0,0;	0,0
785,9094848632812;	337,25;	0,0;	0,0
786,0186157226562;	294,0;	0,0;	0,0
786,127685546875;	307,75;	0,0;	0,0
786,23681640625;	323,0;	0,0;	0,0
786,3458251953125;	331,75;	0,0;	0,0
786,454833984375;	336,0;	0,0;	0,0
786,5638427734375;	308,5;	0,0;	0,0
786,6727905273438;	315,25;	0,0;	0,0
786,7817993164062;	337,5;	0,0;	0,0
786,8907470703125;	323,25;	0,0;	0,0
786,999755859375;	344,0;	0,0;	0,0
787,108642578125;	294,75;	0,0;	0,0
787,217529296875;	296,0;	0,0;	0,0
787,326416015625;	324,75;	0,0;	0,0
787,4352416992188;	297,0;	0,0;	0,0
787,5440063476562;	312,5;	0,0;	0,0
787,65283203125;	301,75;	0,0;	0,0
787,7616577148438;	310,0;	0,0;	0,0
787,8704223632812;	322,75;	0,0;	0,0
787,979248046875;	320,5;	0,0;	0,0
788,0879516601562;	326,25;	0,0;	0,0
788,1966552734375;	309,25;	0,0;	0,0
788,3053588867188;	297,0;	0,0;	0,0
788,4140625;	295,75;	0,0;	0,0
788,522705078125;	328,75;	0,0;	0,0
788,63134765625;	311,5;	0,0;	0,0
788,7399291992188;	282,0;	0,0;	0,0
788,8485717773438;	288,0;	0,0;	0,0
788,9571533203125;	268,25;	0,0;	0,0
789,065673828125;	301,25;	0,0;	0,0
789,1741943359375;	323,25;	0,0;	0,0
789,28271484375;	288,0;	0,0;	0,0
789,3912353515625;	310,5;	0,0;	0,0
789,499755859375;	331,5;	0,0;	0,0
789,608154296875;	298,5;	0,0;	0,0
789,7166137695312;	314,0;	0,0;	0,0
789,8250732421875;	310,0;	0,0;	0,0
789,9334106445312;	304,25;	0,0;	0,0
790,0418090820312;	318,75;	0,0;	0,0
790,150146484375;	307,75;	0,0;	0,0
790,2584838867188;	331,5;	0,0;	0,0
790,3667602539062;	307,5;	0,0;	0,0
790,4751586914062;	353,5;	0,0;	0,0
790,5833740234375;	333,25;	0,0;	0,0
790,691650390625;	296,25;	0,0;	0,0
790,7998657226562;	323,25;	0,0;	0,0
790,9081420898438;	312,25;	0,0;	0,0
791,0162963867188;	311,25;	0,0;	0,0
791,1244506835938;	307,0;	0,0;	0,0
791,2326049804688;	301,0;	0,0;	0,0
791,3406982421875;	297,0;	0,0;	0,0
791,4488525390625;	328,5;	0,0;	0,0
791,5569458007812;	303,5;	0,0;	0,0
791,6650390625;	316,5;	0,0;	0,0
791,7730102539062;	324,0;	0,0;	0,0
791,881103515625;	333,0;	0,0;	0,0
791,9890747070312;	311,25;	0,0;	0,0
792,0971069335938;	331,25;	0,0;	0,0
792,205078125;	305,25;	0,0;	0,0
792,31298828125;	299,0;	0,0;	0,0
792,4209594726562;	311,0;	0,0;	0,0
792,5288696289062;	309,0;	0,0;	0,0
792,6367797851562;	313,0;	0,0;	0,0
792,74462890625;	295,5;	0,0;	0,0
792,8524780273438;	296,5;	0,0;	0,0
792,9603271484375;	307,0;	0,0;	0,0
793,068115234375;	335,0;	0,0;	0,0
793,1759033203125;	342,0;	0,0;	0,0
793,2837524414062;	302,75;	0,0;	0,0
793,3914794921875;	324,75;	0,0;	0,0
793,4992065429688;	332,5;	0,0;	0,0
793,60693359375;	420,5;	0,0;	0,0
793,714599609375;	397,5;	0,0;	0,0
793,822265625;	325,25;	0,0;	0,0
793,9299926757812;	318,25;	0,0;	0,0
794,03759765625;	325,25;	0,0;	0,0
794,1452026367188;	316,25;	0,0;	0,0
794,2528076171875;	363,25;	0,0;	0,0
794,3603515625;	383,0;	0,0;	0,0
794,4678955078125;	453,5;	0,0;	0,0
794,575439453125;	638,5;	0,0;	0,0
794,6829833984375;	953,5;	0,0;	0,0
794,7904663085938;	516,5;	0,0;	0,0
794,89794921875;	410,5;	0,0;	0,0
795,00537109375;	467,75;	0,0;	0,0
795,11279296875;	479,25;	0,0;	0,0
795,2202758789062;	390,25;	0,0;	0,0
795,3275756835938;	326,75;	0,0;	0,0
795,4349975585938;	319,25;	0,0;	0,0
795,5422973632812;	302,25;	0,0;	0,0
795,649658203125;	317,0;	0,0;	0,0
795,7569580078125;	322,0;	0,0;	0,0
795,8642578125;	319,25;	0,0;	0,0
795,9714965820312;	287,5;	0,0;	0,0
796,0787963867188;	306,5;	0,0;	0,0
796,1859741210938;	267,0;	0,0;	0,0
796,293212890625;	277,0;	0,0;	0,0
796,400390625;	285,0;	0,0;	0,0
796,507568359375;	288,75;	0,0;	0,0
796,6146850585938;	305,75;	0,0;	0,0
796,7218017578125;	293,5;	0,0;	0,0
796,8289794921875;	298,0;	0,0;	0,0
796,93603515625;	287,0;	0,0;	0,0
797,0430908203125;	299,25;	0,0;	0,0
797,150146484375;	292,75;	0,0;	0,0
797,2572021484375;	277,75;	0,0;	0,0
797,3641967773438;	297,5;	0,0;	0,0
797,47119140625;	290,0;	0,0;	0,0
797,578125;	285,0;	0,0;	0,0
797,68505859375;	294,75;	0,0;	0,0
797,7919921875;	276,75;	0,0;	0,0
797,89892578125;	295,75;	0,0;	0,0
798,0057983398438;	289,0;	0,0;	0,0
798,1126708984375;	288,5;	0,0;	0,0
798,219482421875;	286,75;	0,0;	0,0
798,3263549804688;	289,25;	0,0;	0,0
798,4331665039062;	294,25;	0,0;	0,0
798,5399169921875;	287,5;	0,0;	0,0
798,646728515625;	295,25;	0,0;	0,0
798,75341796875;	306,25;	0,0;	0,0
798,8601684570312;	286,0;	0,0;	0,0
798,9668579101562;	322,0;	0,0;	0,0
799,0735473632812;	271,25;	0,0;	0,0
799,18017578125;	299,0;	0,0;	0,0
799,2868041992188;	287,0;	0,0;	0,0
799,3934936523438;	281,0;	0,0;	0,0
799,5000610351562;	309,0;	0,0;	0,0
799,6066284179688;	303,0;	0,0;	0,0
799,7131958007812;	330,0;	0,0;	0,0
799,8197631835938;	378,0;	0,0;	0,0
799,9263305664062;	319,0;	0,0;	0,0
800,0327758789062;	302,5;	0,0;	0,0
800,1392822265625;	289,0;	0,0;	0,0
800,2457275390625;	301,0;	0,0;	0,0
800,3521728515625;	300,0;	0,0;	0,0
800,4586181640625;	310,5;	0,0;	0,0
800,56494140625;	302,75;	0,0;	0,0
800,67138671875;	292,5;	0,0;	0,0
800,7776489257812;	300,0;	0,0;	0,0
800,884033203125;	291,5;	0,0;	0,0
800,9902954101562;	287,75;	0,0;	0,0
801,0966186523438;	297,75;	0,0;	0,0
801,202880859375;	294,25;	0,0;	0,0
801,3091430664062;	297,5;	0,0;	0,0
801,4154052734375;	297,75;	0,0;	0,0
801,5216064453125;	292,75;	0,0;	0,0
801,6278076171875;	305,75;	0,0;	0,0
801,7339477539062;	293,5;	0,0;	0,0
801,8401489257812;	274,75;	0,0;	0,0
801,9462280273438;	322,75;	0,0;	0,0
802,0523681640625;	287,75;	0,0;	0,0
802,158447265625;	269,75;	0,0;	0,0
802,2645263671875;	270,75;	0,0;	0,0
802,37060546875;	296,25;	0,0;	0,0
802,4766235351562;	267,75;	0,0;	0,0
802,5826416015625;	284,75;	0,0;	0,0
802,6885986328125;	287,25;	0,0;	0,0
802,7945556640625;	307,25;	0,0;	0,0
802,9005737304688;	273,0;	0,0;	0,0
803,0065307617188;	280,25;	0,0;	0,0
803,1124267578125;	305,25;	0,0;	0,0
803,2183227539062;	273,5;	0,0;	0,0
803,3241577148438;	274,5;	0,0;	0,0
803,4299926757812;	299,0;	0,0;	0,0
803,5358276367188;	289,0;	0,0;	0,0
803,6416015625;	292,5;	0,0;	0,0
803,7474365234375;	267,75;	0,0;	0,0
803,8532104492188;	284,25;	0,0;	0,0
803,9589233398438;	267,5;	0,0;	0,0
804,0646362304688;	285,5;	0,0;	0,0
804,17041015625;	277,75;	0,0;	0,0
804,2760009765625;	272,75;	0,0;	0,0
804,3817138671875;	286,5;	0,0;	0,0
804,4873657226562;	345,75;	0,0;	0,0
804,5929565429688;	354,75;	0,0;	0,0
804,6985473632812;	265,25;	0,0;	0,0
804,80419921875;	289,75;	0,0;	0,0
804,9097290039062;	288,75;	0,0;	0,0
805,0153198242188;	269,75;	0,0;	0,0
805,1207275390625;	280,25;	0,0;	0,0
805,226318359375;	294,0;	0,0;	0,0
805,3316650390625;	287,75;	0,0;	0,0
805,437255859375;	271,75;	0,0;	0,0
805,5426635742188;	270,25;	0,0;	0,0
805,6481323242188;	313,0;	0,0;	0,0
805,75341796875;	276,5;	0,0;	0,0
805,8588256835938;	306,25;	0,0;	0,0
805,9641723632812;	285,75;	0,0;	0,0
806,0695190429688;	280,0;	0,0;	0,0
806,1748657226562;	289,5;	0,0;	0,0
806,2801513671875;	261,75;	0,0;	0,0
806,3853759765625;	257,5;	0,0;	0,0
806,4906005859375;	274,25;	0,0;	0,0
806,5958862304688;	264,5;	0,0;	0,0
806,7011108398438;	273,75;	0,0;	0,0
806,8062744140625;	275,75;	0,0;	0,0
806,9114379882812;	286,75;	0,0;	0,0
807,0166625976562;	263,0;	0,0;	0,0
807,1217041015625;	289,75;	0,0;	0,0
807,2268676757812;	293,75;	0,0;	0,0
807,3319091796875;	311,25;	0,0;	0,0
807,43701171875;	253,25;	0,0;	0,0
807,5420532226562;	286,0;	0,0;	0,0
807,6470947265625;	289,75;	0,0;	0,0
807,7521362304688;	295,25;	0,0;	0,0
807,8571166992188;	268,5;	0,0;	0,0
807,9620361328125;	302,0;	0,0;	0,0
808,0669555664062;	295,5;	0,0;	0,0
808,1719360351562;	275,75;	0,0;	0,0
808,27685546875;	280,0;	0,0;	0,0
808,3817138671875;	322,25;	0,0;	0,0
808,486572265625;	332,0;	0,0;	0,0
808,5914306640625;	282,75;	0,0;	0,0
808,6962890625;	288,25;	0,0;	0,0
808,8010864257812;	276,0;	0,0;	0,0
808,9058837890625;	278,5;	0,0;	0,0
809,0105590820312;	299,5;	0,0;	0,0
809,1152954101562;	293,25;	0,0;	0,0
809,2200317382812;	279,5;	0,0;	0,0
809,3247680664062;	301,0;	0,0;	0,0
809,4293823242188;	287,75;	0,0;	0,0
809,5341186523438;	291,75;	0,0;	0,0
809,6386108398438;	288,5;	0,0;	0,0
809,7433471679688;	296,25;	0,0;	0,0
809,847900390625;	288,0;	0,0;	0,0
809,9525146484375;	258,25;	0,0;	0,0
810,0570068359375;	300,75;	0,0;	0,0
810,16162109375;	299,25;	0,0;	0,0
810,2660522460938;	306,0;	0,0;	0,0
810,3705444335938;	287,0;	0,0;	0,0
810,4750366210938;	290,5;	0,0;	0,0
810,5794677734375;	300,75;	0,0;	0,0
810,6838989257812;	282,0;	0,0;	0,0
810,7882690429688;	297,0;	0,0;	0,0
810,8927001953125;	272,0;	0,0;	0,0
810,9970703125;	291,75;	0,0;	0,0
811,1013793945312;	303,75;	0,0;	0,0
811,2057495117188;	313,5;	0,0;	0,0
811,31005859375;	288,0;	0,0;	0,0
811,414306640625;	301,5;	0,0;	0,0
811,5186157226562;	340,75;	0,0;	0,0
811,6228637695312;	305,25;	0,0;	0,0
811,7271118164062;	312,25;	0,0;	0,0
811,8312377929688;	296,5;	0,0;	0,0
811,9354858398438;	288,25;	0,0;	0,0
812,0396118164062;	264,25;	0,0;	0,0
812,1437377929688;	278,0;	0,0;	0,0
812,2478637695312;	277,0;	0,0;	0,0
812,3519897460938;	278,25;	0,0;	0,0
812,4560546875;	324,5;	0,0;	0,0
812,5601196289062;	392,5;	0,0;	0,0
812,6641235351562;	332,0;	0,0;	0,0
812,7681884765625;	267,0;	0,0;	0,0
812,8721313476562;	289,0;	0,0;	0,0
812,9761352539062;	267,75;	0,0;	0,0
813,0801391601562;	273,25;	0,0;	0,0
813,1840209960938;	267,0;	0,0;	0,0
813,2879638671875;	284,0;	0,0;	0,0
813,391845703125;	273,0;	0,0;	0,0
813,4957275390625;	277,25;	0,0;	0,0
813,5995483398438;	281,0;	0,0;	0,0
813,703369140625;	277,5;	0,0;	0,0
813,8071899414062;	311,5;	0,0;	0,0
813,9110107421875;	269,5;	0,0;	0,0
814,0147094726562;	285,0;	0,0;	0,0
814,118408203125;	279,5;	0,0;	0,0
814,2222290039062;	284,75;	0,0;	0,0
814,3258666992188;	290,75;	0,0;	0,0
814,4295654296875;	268,25;	0,0;	0,0
814,533203125;	282,5;	0,0;	0,0
814,6369018554688;	292,75;	0,0;	0,0
814,740478515625;	288,25;	0,0;	0,0
814,8440551757812;	264,25;	0,0;	0,0
814,9476928710938;	275,5;	0,0;	0,0
815,0512084960938;	279,25;	0,0;	0,0
815,15478515625;	279,25;	0,0;	0,0
815,25830078125;	298,0;	0,0;	0,0
815,3617553710938;	265,5;	0,0;	0,0
815,4652099609375;	286,75;	0,0;	0,0
815,5686645507812;	279,0;	0,0;	0,0
815,6721801757812;	273,5;	0,0;	0,0
815,7755737304688;	291,5;	0,0;	0,0
815,8789672851562;	294,75;	0,0;	0,0
815,9823608398438;	284,25;	0,0;	0,0
816,085693359375;	267,0;	0,0;	0,0
816,18896484375;	286,25;	0,0;	0,0
816,2922973632812;	289,25;	0,0;	0,0
816,3955688476562;	284,75;	0,0;	0,0
816,4989013671875;	315,5;	0,0;	0,0
816,6021118164062;	289,0;	0,0;	0,0
816,705322265625;	282,0;	0,0;	0,0
816,8085327148438;	287,5;	0,0;	0,0
816,9117431640625;	284,75;	0,0;	0,0
817,014892578125;	265,75;	0,0;	0,0
817,1180419921875;	280,0;	0,0;	0,0
817,22119140625;	302,5;	0,0;	0,0
817,32421875;	303,75;	0,0;	0,0
817,4273681640625;	297,75;	0,0;	0,0
817,5303955078125;	324,25;	0,0;	0,0
817,6334228515625;	331,0;	0,0;	0,0
817,7365112304688;	326,25;	0,0;	0,0
817,8394775390625;	365,75;	0,0;	0,0
817,9424438476562;	439,75;	0,0;	0,0
818,04541015625;	697,5;	0,0;	0,0
818,1483154296875;	1568,0;	0,0;	0,0
818,251220703125;	3193,0;	0,0;	0,0
818,3541259765625;	1744,25;	0,0;	0,0
818,45703125;	1121,25;	0,0;	0,0
818,5598754882812;	748,75;	0,0;	0,0
818,6627197265625;	893,0;	0,0;	0,0
818,7654418945312;	969,0;	0,0;	0,0
818,8682861328125;	644,5;	0,0;	0,0
818,9710083007812;	508,0;	0,0;	0,0
819,0737915039062;	561,75;	0,0;	0,0
819,1764526367188;	749,0;	0,0;	0,0
819,2791137695312;	1759,0;	0,0;	0,0
819,3818359375;	4404,25;	0,0;	0,0
819,4844970703125;	2545,5;	0,0;	0,0
819,587158203125;	658,75;	0,0;	0,0
819,6897583007812;	471,0;	0,0;	0,0
819,7923583984375;	427,0;	0,0;	0,0
819,8949584960938;	427,0;	0,0;	0,0
819,9974975585938;	455,25;	0,0;	0,0
820,1000366210938;	398,25;	0,0;	0,0
820,2025146484375;	356,0;	0,0;	0,0
820,3050537109375;	329,0;	0,0;	0,0
820,4075317382812;	321,0;	0,0;	0,0
820,5099487304688;	332,0;	0,0;	0,0
820,6123657226562;	360,0;	0,0;	0,0
820,7147827148438;	355,5;	0,0;	0,0
820,8171997070312;	376,0;	0,0;	0,0
820,9196166992188;	489,5;	0,0;	0,0
821,0219116210938;	600,5;	0,0;	0,0
821,1242065429688;	506,5;	0,0;	0,0
821,2265625;	449,75;	0,0;	0,0
821,3287963867188;	552,0;	0,0;	0,0
821,4310913085938;	878,25;	0,0;	0,0
821,5333251953125;	1646,75;	0,0;	0,0
821,6355590820312;	1438,25;	0,0;	0,0
821,7377319335938;	752,25;	0,0;	0,0
821,8399658203125;	579,0;	0,0;	0,0
821,9420776367188;	675,5;	0,0;	0,0
822,044189453125;	632,25;	0,0;	0,0
822,1463623046875;	778,0;	0,0;	0,0
822,2484741210938;	959,5;	0,0;	0,0
822,3505249023438;	668,5;	0,0;	0,0
822,4525756835938;	450,75;	0,0;	0,0
822,5546264648438;	351,5;	0,0;	0,0
822,6566162109375;	357,5;	0,0;	0,0
822,7586059570312;	336,75;	0,0;	0,0
822,860595703125;	357,75;	0,0;	0,0
822,9625244140625;	342,25;	0,0;	0,0
823,064453125;	338,75;	0,0;	0,0
823,166259765625;	356,25;	0,0;	0,0
823,2682495117188;	357,75;	0,0;	0,0
823,3700561523438;	301,25;	0,0;	0,0
823,471923828125;	317,5;	0,0;	0,0
823,57373046875;	292,25;	0,0;	0,0
823,6754760742188;	287,0;	0,0;	0,0
823,7772827148438;	338,75;	0,0;	0,0
823,8790283203125;	357,5;	0,0;	0,0
823,9807739257812;	453,75;	0,0;	0,0
824,08251953125;	616,0;	0,0;	0,0
824,1842041015625;	900,0;	0,0;	0,0
824,285888671875;	613,75;	0,0;	0,0
824,3875122070312;	388,75;	0,0;	0,0
824,4891357421875;	348,75;	0,0;	0,0
824,5908203125;	298,0;	0,0;	0,0
824,6923828125;	306,0;	0,0;	0,0
824,7938842773438;	284,75;	0,0;	0,0
824,8954467773438;	275,75;	0,0;	0,0
824,9969482421875;	283,75;	0,0;	0,0
825,0985107421875;	296,5;	0,0;	0,0
825,2000122070312;	269,0;	0,0;	0,0
825,3014526367188;	298,75;	0,0;	0,0
825,4028930664062;	282,25;	0,0;	0,0
825,5043334960938;	265,25;	0,0;	0,0
825,6056518554688;	269,25;	0,0;	0,0
825,7070922851562;	282,0;	0,0;	0,0
825,8084106445312;	280,25;	0,0;	0,0
825,9097900390625;	286,5;	0,0;	0,0
826,0110473632812;	268,5;	0,0;	0,0
826,1124267578125;	284,0;	0,0;	0,0
826,2136840820312;	268,0;	0,0;	0,0
826,3148803710938;	276,0;	0,0;	0,0
826,4161376953125;	293,25;	0,0;	0,0
826,517333984375;	273,75;	0,0;	0,0
826,6185302734375;	279,0;	0,0;	0,0
826,7197265625;	267,0;	0,0;	0,0
826,82080078125;	263,0;	0,0;	0,0
826,9219360351562;	256,0;	0,0;	0,0
827,0230712890625;	265,75;	0,0;	0,0
827,1241455078125;	249,0;	0,0;	0,0
827,2252197265625;	276,0;	0,0;	0,0
827,3262939453125;	271,5;	0,0;	0,0
827,42724609375;	280,0;	0,0;	0,0
827,5281982421875;	288,75;	0,0;	0,0
827,6292114257812;	255,0;	0,0;	0,0
827,7301635742188;	255,5;	0,0;	0,0
827,8311157226562;	277,25;	0,0;	0,0
827,9320068359375;	278,5;	0,0;	0,0
828,0328369140625;	276,75;	0,0;	0,0
828,1337890625;	258,0;	0,0;	0,0
828,234619140625;	254,25;	0,0;	0,0
828,3353881835938;	256,5;	0,0;	0,0
828,4362182617188;	260,25;	0,0;	0,0
828,5369873046875;	275,25;	0,0;	0,0
828,6377563476562;	257,5;	0,0;	0,0
828,7384643554688;	291,0;	0,0;	0,0
828,8392333984375;	292,75;	0,0;	0,0
828,93994140625;	278,5;	0,0;	0,0
829,0405883789062;	250,0;	0,0;	0,0
829,1412963867188;	270,75;	0,0;	0,0
829,241943359375;	269,0;	0,0;	0,0
829,3424682617188;	261,75;	0,0;	0,0
829,443115234375;	266,75;	0,0;	0,0
829,543701171875;	275,5;	0,0;	0,0
829,6442260742188;	248,75;	0,0;	0,0
829,7447509765625;	261,0;	0,0;	0,0
829,8452758789062;	276,25;	0,0;	0,0
829,94580078125;	270,25;	0,0;	0,0
830,0462036132812;	263,25;	0,0;	0,0
830,1466674804688;	275,25;	0,0;	0,0
830,2470703125;	265,5;	0,0;	0,0
830,3475341796875;	270,5;	0,0;	0,0
830,4478759765625;	280,0;	0,0;	0,0
830,5482177734375;	266,5;	0,0;	0,0
830,6485595703125;	275,5;	0,0;	0,0
830,7489013671875;	257,75;	0,0;	0,0
830,8491821289062;	271,75;	0,0;	0,0
830,949462890625;	239,5;	0,0;	0,0
831,0497436523438;	280,25;	0,0;	0,0
831,14990234375;	275,75;	0,0;	0,0
831,2501220703125;	259,75;	0,0;	0,0
831,350341796875;	248,75;	0,0;	0,0
831,4505004882812;	269,25;	0,0;	0,0
831,5506591796875;	266,0;	0,0;	0,0
831,6507568359375;	264,75;	0,0;	0,0
831,7508544921875;	259,25;	0,0;	0,0
831,8508911132812;	281,75;	0,0;	0,0
831,9510498046875;	263,0;	0,0;	0,0
832,051025390625;	271,0;	0,0;	0,0
832,1510620117188;	269,25;	0,0;	0,0
832,2509765625;	281,5;	0,0;	0,0
832,3509521484375;	277,75;	0,0;	0,0
832,4509887695312;	299,0;	0,0;	0,0
832,5509033203125;	377,0;	0,0;	0,0
832,6508178710938;	405,5;	0,0;	0,0
832,7506103515625;	302,75;	0,0;	0,0
832,8505249023438;	260,75;	0,0;	0,0
832,9503784179688;	276,0;	0,0;	0,0
833,0502319335938;	319,5;	0,0;	0,0
833,1500244140625;	312,75;	0,0;	0,0
833,249755859375;	262,25;	0,0;	0,0
833,3495483398438;	268,75;	0,0;	0,0
833,4492797851562;	276,5;	0,0;	0,0
833,5490112304688;	258,25;	0,0;	0,0
833,648681640625;	276,25;	0,0;	0,0
833,7484130859375;	267,0;	0,0;	0,0
833,8480224609375;	288,75;	0,0;	0,0
833,9476318359375;	280,75;	0,0;	0,0
834,0473022460938;	273,0;	0,0;	0,0
834,1468505859375;	267,0;	0,0;	0,0
834,2464599609375;	256,5;	0,0;	0,0
834,3460083007812;	256,25;	0,0;	0,0
834,4454956054688;	254,25;	0,0;	0,0
834,5450439453125;	251,0;	0,0;	0,0
834,64453125;	277,5;	0,0;	0,0
834,7439575195312;	273,25;	0,0;	0,0
834,8433837890625;	272,5;	0,0;	0,0
834,9428100585938;	252,0;	0,0;	0,0
835,042236328125;	275,0;	0,0;	0,0
835,1415405273438;	250,25;	0,0;	0,0
835,2409057617188;	277,5;	0,0;	0,0
835,3402709960938;	252,75;	0,0;	0,0
835,4395751953125;	269,5;	0,0;	0,0
835,538818359375;	286,5;	0,0;	0,0
835,6381225585938;	273,5;	0,0;	0,0
835,7373657226562;	256,75;	0,0;	0,0
835,8366088867188;	283,25;	0,0;	0,0
835,9358520507812;	277,25;	0,0;	0,0
836,0350341796875;	291,25;	0,0;	0,0
836,1340942382812;	255,25;	0,0;	0,0
836,2332763671875;	257,75;	0,0;	0,0
836,3323364257812;	264,0;	0,0;	0,0
836,4315185546875;	292,5;	0,0;	0,0
836,530517578125;	283,5;	0,0;	0,0
836,6295776367188;	274,5;	0,0;	0,0
836,7285766601562;	272,25;	0,0;	0,0
836,82763671875;	268,0;	0,0;	0,0
836,9265747070312;	255,75;	0,0;	0,0
837,0255737304688;	283,25;	0,0;	0,0
837,1244506835938;	266,25;	0,0;	0,0
837,2234497070312;	278,5;	0,0;	0,0
837,3223266601562;	272,0;	0,0;	0,0
837,4212036132812;	266,25;	0,0;	0,0
837,5200805664062;	288,0;	0,0;	0,0
837,618896484375;	276,0;	0,0;	0,0
837,7177124023438;	251,75;	0,0;	0,0
837,8165283203125;	254,5;	0,0;	0,0
837,915283203125;	255,5;	0,0;	0,0
838,0140380859375;	270,0;	0,0;	0,0
838,11279296875;	261,0;	0,0;	0,0
838,2114868164062;	266,25;	0,0;	0,0
838,3101196289062;	264,75;	0,0;	0,0
838,4088134765625;	277,25;	0,0;	0,0
838,5075073242188;	288,5;	0,0;	0,0
838,6061401367188;	353,0;	0,0;	0,0
838,7047119140625;	449,5;	0,0;	0,0
838,8032836914062;	299,25;	0,0;	0,0
838,9017944335938;	260,0;	0,0;	0,0
839,0003662109375;	288,25;	0,0;	0,0
839,098876953125;	263,5;	0,0;	0,0
839,1973876953125;	286,75;	0,0;	0,0
839,2958374023438;	259,5;	0,0;	0,0
839,394287109375;	276,5;	0,0;	0,0
839,4927368164062;	261,5;	0,0;	0,0
839,5911254882812;	270,75;	0,0;	0,0
839,6895141601562;	281,25;	0,0;	0,0
839,787841796875;	258,75;	0,0;	0,0
839,8861694335938;	276,25;	0,0;	0,0
839,9844970703125;	271,25;	0,0;	0,0
840,0828247070312;	268,25;	0,0;	0,0
840,1810913085938;	258,0;	0,0;	0,0
840,2793579101562;	263,25;	0,0;	0,0
840,3775024414062;	275,0;	0,0;	0,0
840,475830078125;	262,0;	0,0;	0,0
840,5739135742188;	287,5;	0,0;	0,0
840,6721801757812;	292,0;	0,0;	0,0
840,770263671875;	283,0;	0,0;	0,0
840,868408203125;	264,0;	0,0;	0,0
840,9664916992188;	281,0;	0,0;	0,0
841,0645751953125;	262,75;	0,0;	0,0
841,16259765625;	288,0;	0,0;	0,0
841,2606201171875;	273,0;	0,0;	0,0
841,3587036132812;	271,0;	0,0;	0,0
841,4566650390625;	267,0;	0,0;	0,0
841,5546264648438;	260,75;	0,0;	0,0
841,652587890625;	284,5;	0,0;	0,0
841,75048828125;	282,5;	0,0;	0,0
841,8484497070312;	280,0;	0,0;	0,0
841,9463500976562;	256,5;	0,0;	0,0
842,0441284179688;	278,25;	0,0;	0,0
842,1420288085938;	278,75;	0,0;	0,0
842,2398681640625;	269,25;	0,0;	0,0
842,337646484375;	276,5;	0,0;	0,0
842,4353637695312;	303,75;	0,0;	0,0
842,533203125;	281,5;	0,0;	0,0
842,6309204101562;	266,75;	0,0;	0,0
842,7285766601562;	283,0;	0,0;	0,0
842,8263549804688;	260,75;	0,0;	0,0
842,9240112304688;	277,75;	0,0;	0,0
843,0216064453125;	252,25;	0,0;	0,0
843,1192626953125;	286,75;	0,0;	0,0
843,2168579101562;	261,0;	0,0;	0,0
843,314453125;	259,75;	0,0;	0,0
843,4120483398438;	291,75;	0,0;	0,0
843,509521484375;	266,0;	0,0;	0,0
843,6070556640625;	279,75;	0,0;	0,0
843,7045288085938;	294,0;	0,0;	0,0
843,802001953125;	308,25;	0,0;	0,0
843,8994750976562;	293,25;	0,0;	0,0
843,9968872070312;	320,0;	0,0;	0,0
844,0942993164062;	334,75;	0,0;	0,0
844,191650390625;	332,0;	0,0;	0,0
844,2890014648438;	448,0;	0,0;	0,0
844,3863525390625;	601,0;	0,0;	0,0
844,4837036132812;	958,0;	0,0;	0,0
844,5809326171875;	1283,75;	0,0;	0,0
844,6782836914062;	894,0;	0,0;	0,0
844,7754516601562;	570,5;	0,0;	0,0
844,872802734375;	436,0;	0,0;	0,0
844,9699096679688;	316,5;	0,0;	0,0
845,0671997070312;	314,75;	0,0;	0,0
845,164306640625;	288,5;	0,0;	0,0
845,2614135742188;	279,75;	0,0;	0,0
845,3585815429688;	294,0;	0,0;	0,0
845,4556884765625;	295,25;	0,0;	0,0
845,552734375;	284,75;	0,0;	0,0
845,6498413085938;	274,75;	0,0;	0,0
845,746826171875;	283,75;	0,0;	0,0
845,8438720703125;	258,0;	0,0;	0,0
845,9408569335938;	269,5;	0,0;	0,0
846,037841796875;	260,25;	0,0;	0,0
846,134765625;	267,75;	0,0;	0,0
846,231689453125;	260,25;	0,0;	0,0
846,32861328125;	271,5;	0,0;	0,0
846,4254760742188;	269,75;	0,0;	0,0
846,5223388671875;	285,0;	0,0;	0,0
846,6192016601562;	283,75;	0,0;	0,0
846,716064453125;	292,0;	0,0;	0,0
846,8128051757812;	279,75;	0,0;	0,0
846,9096069335938;	263,25;	0,0;	0,0
847,00634765625;	258,0;	0,0;	0,0
847,1030883789062;	261,25;	0,0;	0,0
847,1998291015625;	247,5;	0,0;	0,0
847,2964477539062;	257,25;	0,0;	0,0
847,3931274414062;	259,5;	0,0;	0,0
847,4898071289062;	268,0;	0,0;	0,0
847,58642578125;	260,0;	0,0;	0,0
847,6829833984375;	250,75;	0,0;	0,0
847,779541015625;	259,0;	0,0;	0,0
847,8760986328125;	278,25;	0,0;	0,0
847,97265625;	245,0;	0,0;	0,0
848,0691528320312;	255,5;	0,0;	0,0
848,1656494140625;	254,25;	0,0;	0,0
848,2621459960938;	247,0;	0,0;	0,0
848,3585815429688;	280,0;	0,0;	0,0
848,4549560546875;	273,0;	0,0;	0,0
848,5513305664062;	247,75;	0,0;	0,0
848,6478271484375;	242,5;	0,0;	0,0
848,7440795898438;	243,5;	0,0;	0,0
848,8405151367188;	271,0;	0,0;	0,0
848,936767578125;	289,0;	0,0;	0,0
849,0330810546875;	255,25;	0,0;	0,0
849,1293334960938;	253,75;	0,0;	0,0
849,2256469726562;	262,25;	0,0;	0,0
849,32177734375;	280,0;	0,0;	0,0
849,4180297851562;	254,5;	0,0;	0,0
849,51416015625;	273,0;	0,0;	0,0
849,6103515625;	267,25;	0,0;	0,0
849,7064819335938;	311,5;	0,0;	0,0
849,8026123046875;	271,5;	0,0;	0,0
849,898681640625;	277,75;	0,0;	0,0
849,9947509765625;	258,5;	0,0;	0,0
850,0908203125;	270,0;	0,0;	0,0
850,1868286132812;	261,25;	0,0;	0,0
850,2828979492188;	250,75;	0,0;	0,0
850,3788452148438;	269,75;	0,0;	0,0
850,474853515625;	265,25;	0,0;	0,0
850,5707397460938;	261,5;	0,0;	0,0
850,6666870117188;	275,0;	0,0;	0,0
850,7625732421875;	271,25;	0,0;	0,0
850,8583984375;	249,25;	0,0;	0,0
850,9542846679688;	264,0;	0,0;	0,0
851,0501098632812;	262,25;	0,0;	0,0
851,1459350585938;	266,0;	0,0;	0,0
851,24169921875;	278,0;	0,0;	0,0
851,3374633789062;	287,5;	0,0;	0,0
851,4332275390625;	252,5;	0,0;	0,0
851,5289306640625;	248,5;	0,0;	0,0
851,6246337890625;	266,5;	0,0;	0,0
851,7203369140625;	259,5;	0,0;	0,0
851,8159790039062;	261,75;	0,0;	0,0
851,91162109375;	254,25;	0,0;	0,0
852,0072631835938;	277,25;	0,0;	0,0
852,1028442382812;	250,75;	0,0;	0,0
852,1983642578125;	256,25;	0,0;	0,0
852,2939453125;	255,25;	0,0;	0,0
852,3894653320312;	259,5;	0,0;	0,0
852,4849853515625;	282,0;	0,0;	0,0
852,5804443359375;	258,75;	0,0;	0,0
852,6758422851562;	261,5;	0,0;	0,0
852,7713012695312;	262,0;	0,0;	0,0
852,86669921875;	247,75;	0,0;	0,0
852,962158203125;	246,0;	0,0;	0,0
853,0574340820312;	244,75;	0,0;	0,0
853,15283203125;	267,75;	0,0;	0,0
853,2481689453125;	277,5;	0,0;	0,0
853,343505859375;	263,75;	0,0;	0,0
853,4386596679688;	255,0;	0,0;	0,0
853,5340576171875;	264,25;	0,0;	0,0
853,6292114257812;	243,25;	0,0;	0,0
853,7244262695312;	256,75;	0,0;	0,0
853,819580078125;	264,75;	0,0;	0,0
853,9147338867188;	303,5;	0,0;	0,0
854,0098876953125;	369,0;	0,0;	0,0
854,1050415039062;	488,0;	0,0;	0,0
854,2001342773438;	398,75;	0,0;	0,0
854,2952270507812;	289,75;	0,0;	0,0
854,3903198242188;	267,75;	0,0;	0,0
854,4852905273438;	260,5;	0,0;	0,0
854,580322265625;	266,5;	0,0;	0,0
854,6753540039062;	256,25;	0,0;	0,0
854,7703247070312;	244,75;	0,0;	0,0
854,865234375;	269,75;	0,0;	0,0
854,960205078125;	276,75;	0,0;	0,0
855,0551147460938;	248,25;	0,0;	0,0
855,1499633789062;	260,0;	0,0;	0,0
855,2448120117188;	263,75;	0,0;	0,0
855,3396606445312;	251,25;	0,0;	0,0
855,4344482421875;	260,75;	0,0;	0,0
855,5292358398438;	246,0;	0,0;	0,0
855,6240234375;	253,0;	0,0;	0,0
855,7188110351562;	254,25;	0,0;	0,0
855,8135375976562;	274,0;	0,0;	0,0
855,9082641601562;	267,25;	0,0;	0,0
856,0029296875;	263,0;	0,0;	0,0
856,0975952148438;	258,0;	0,0;	0,0
856,1921997070312;	252,0;	0,0;	0,0
856,286865234375;	265,5;	0,0;	0,0
856,3814086914062;	283,0;	0,0;	0,0
856,4760131835938;	285,0;	0,0;	0,0
856,570556640625;	313,5;	0,0;	0,0
856,6651000976562;	372,5;	0,0;	0,0
856,759521484375;	348,25;	0,0;	0,0
856,8540649414062;	332,5;	0,0;	0,0
856,948486328125;	318,5;	0,0;	0,0
857,04296875;	281,25;	0,0;	0,0
857,1373291015625;	272,25;	0,0;	0,0
857,2317504882812;	284,0;	0,0;	0,0
857,3261108398438;	265,75;	0,0;	0,0
857,4204711914062;	253,75;	0,0;	0,0
857,5147705078125;	257,0;	0,0;	0,0
857,609130859375;	294,0;	0,0;	0,0
857,703369140625;	254,5;	0,0;	0,0
857,797607421875;	248,25;	0,0;	0,0
857,891845703125;	260,75;	0,0;	0,0
857,986083984375;	266,5;	0,0;	0,0
858,0802612304688;	274,5;	0,0;	0,0
858,1744384765625;	292,75;	0,0;	0,0
858,2686157226562;	254,5;	0,0;	0,0
858,3627319335938;	269,25;	0,0;	0,0
858,4568481445312;	266,75;	0,0;	0,0
858,5509033203125;	266,75;	0,0;	0,0
858,6449584960938;	292,75;	0,0;	0,0
858,739013671875;	255,25;	0,0;	0,0
858,8330078125;	254,5;	0,0;	0,0
858,927001953125;	289,75;	0,0;	0,0
859,0209350585938;	282,75;	0,0;	0,0
859,1149291992188;	334,75;	0,0;	0,0
859,2088623046875;	363,0;	0,0;	0,0
859,302734375;	457,25;	0,0;	0,0
859,3966674804688;	457,25;	0,0;	0,0
859,4905395507812;	380,25;	0,0;	0,0
859,5843505859375;	332,75;	0,0;	0,0
859,6781616210938;	307,0;	0,0;	0,0
859,77197265625;	296,5;	0,0;	0,0
859,86572265625;	277,5;	0,0;	0,0
859,95947265625;	284,0;	0,0;	0,0
860,05322265625;	275,75;	0,0;	0,0
860,1469116210938;	256,0;	0,0;	0,0
860,2406005859375;	278,75;	0,0;	0,0
860,3342895507812;	269,75;	0,0;	0,0
860,4278564453125;	276,0;	0,0;	0,0
860,521484375;	270,75;	0,0;	0,0
860,6151123046875;	288,5;	0,0;	0,0
860,7086791992188;	283,25;	0,0;	0,0
860,8021240234375;	274,25;	0,0;	0,0
860,8956909179688;	266,5;	0,0;	0,0
860,9891357421875;	288,75;	0,0;	0,0
861,0827026367188;	293,25;	0,0;	0,0
861,1760864257812;	257,5;	0,0;	0,0
861,2695922851562;	274,0;	0,0;	0,0
861,3629760742188;	284,25;	0,0;	0,0
861,4563598632812;	252,25;	0,0;	0,0
861,5497436523438;	246,5;	0,0;	0,0
861,64306640625;	270,25;	0,0;	0,0
861,7363891601562;	248,5;	0,0;	0,0
861,8296508789062;	264,0;	0,0;	0,0
861,9229736328125;	268,5;	0,0;	0,0
862,0162353515625;	278,75;	0,0;	0,0
862,1094360351562;	278,5;	0,0;	0,0
862,20263671875;	284,25;	0,0;	0,0
862,2958374023438;	292,0;	0,0;	0,0
862,3890380859375;	312,75;	0,0;	0,0
862,482177734375;	308,75;	0,0;	0,0
862,5753173828125;	352,75;	0,0;	0,0
862,6683959960938;	432,5;	0,0;	0,0
862,761474609375;	585,5;	0,0;	0,0
862,8545532226562;	721,25;	0,0;	0,0
862,9475708007812;	630,75;	0,0;	0,0
863,0405883789062;	516,25;	0,0;	0,0
863,133544921875;	420,75;	0,0;	0,0
863,2265625;	318,75;	0,0;	0,0
863,3194580078125;	306,0;	0,0;	0,0
863,412353515625;	295,75;	0,0;	0,0
863,5052490234375;	278,0;	0,0;	0,0
863,59814453125;	271,25;	0,0;	0,0
863,6909790039062;	301,75;	0,0;	0,0
863,7838134765625;	256,0;	0,0;	0,0
863,8766479492188;	264,25;	0,0;	0,0
863,9694213867188;	264,0;	0,0;	0,0
864,0621948242188;	268,5;	0,0;	0,0
864,1549072265625;	259,25;	0,0;	0,0
864,2476806640625;	271,0;	0,0;	0,0
864,34033203125;	264,0;	0,0;	0,0
864,4330444335938;	264,5;	0,0;	0,0
864,5256958007812;	252,25;	0,0;	0,0
864,6182861328125;	265,0;	0,0;	0,0
864,7109375;	273,5;	0,0;	0,0
864,803466796875;	264,5;	0,0;	0,0
864,8960571289062;	252,25;	0,0;	0,0
864,988525390625;	262,5;	0,0;	0,0
865,0811157226562;	277,0;	0,0;	0,0
865,1735229492188;	257,25;	0,0;	0,0
865,2660522460938;	301,75;	0,0;	0,0
865,3584594726562;	272,5;	0,0;	0,0
865,4509887695312;	368,75;	0,0;	0,0
865,5432739257812;	336,0;	0,0;	0,0
865,6357421875;	354,5;	0,0;	0,0
865,72802734375;	316,75;	0,0;	0,0
865,8203125;	307,75;	0,0;	0,0
865,9127197265625;	334,75;	0,0;	0,0
866,0049438476562;	400,0;	0,0;	0,0
866,0972290039062;	451,25;	0,0;	0,0
866,189453125;	407,75;	0,0;	0,0
866,2816772460938;	312,75;	0,0;	0,0
866,3739013671875;	274,25;	0,0;	0,0
866,466064453125;	266,0;	0,0;	0,0
866,5582275390625;	291,5;	0,0;	0,0
866,6503295898438;	260,75;	0,0;	0,0
866,7424926757812;	265,75;	0,0;	0,0
866,8345336914062;	279,0;	0,0;	0,0
866,9266357421875;	292,5;	0,0;	0,0
867,0186767578125;	297,75;	0,0;	0,0
867,1107177734375;	266,25;	0,0;	0,0
867,2026977539062;	302,75;	0,0;	0,0
867,294677734375;	313,5;	0,0;	0,0
867,3865966796875;	351,25;	0,0;	0,0
867,478515625;	375,25;	0,0;	0,0
867,5704345703125;	411,0;	0,0;	0,0
867,662353515625;	538,75;	0,0;	0,0
867,7542114257812;	723,75;	0,0;	0,0
867,8460693359375;	1183,0;	0,0;	0,0
867,9378662109375;	1520,5;	0,0;	0,0
868,0296630859375;	1341,0;	0,0;	0,0
868,1213989257812;	1084,25;	0,0;	0,0
868,2131958007812;	1200,75;	0,0;	0,0
868,3048706054688;	1144,0;	0,0;	0,0
868,3965454101562;	818,75;	0,0;	0,0
868,48828125;	785,0;	0,0;	0,0
868,5799560546875;	686,5;	0,0;	0,0
868,6715698242188;	544,25;	0,0;	0,0
868,7631225585938;	609,0;	0,0;	0,0
868,8547973632812;	475,25;	0,0;	0,0
868,9462890625;	338,5;	0,0;	0,0
869,037841796875;	295,75;	0,0;	0,0
869,1293334960938;	282,5;	0,0;	0,0
869,220947265625;	280,5;	0,0;	0,0
869,3123168945312;	297,5;	0,0;	0,0
869,4038696289062;	301,75;	0,0;	0,0
869,4951782226562;	262,25;	0,0;	0,0
869,5867309570312;	289,25;	0,0;	0,0
869,6780395507812;	281,25;	0,0;	0,0
869,7693481445312;	296,25;	0,0;	0,0
869,8607177734375;	276,75;	0,0;	0,0
869,9520263671875;	322,5;	0,0;	0,0
870,0433349609375;	357,0;	0,0;	0,0
870,1345825195312;	463,5;	0,0;	0,0
870,225830078125;	561,5;	0,0;	0,0
870,3170776367188;	509,75;	0,0;	0,0
870,4082641601562;	380,25;	0,0;	0,0
870,4994506835938;	342,0;	0,0;	0,0
870,590576171875;	313,25;	0,0;	0,0
870,6817626953125;	284,25;	0,0;	0,0
870,7728271484375;	312,75;	0,0;	0,0
870,8639526367188;	380,0;	0,0;	0,0
870,9550170898438;	462,0;	0,0;	0,0
871,0460815429688;	559,0;	0,0;	0,0
871,1370849609375;	639,0;	0,0;	0,0
871,2280883789062;	410,75;	0,0;	0,0
871,319091796875;	339,5;	0,0;	0,0
871,4100341796875;	328,5;	0,0;	0,0
871,5009155273438;	322,0;	0,0;	0,0
871,5918579101562;	369,0;	0,0;	0,0
871,6828002929688;	424,25;	0,0;	0,0
871,7736206054688;	519,75;	0,0;	0,0
871,864501953125;	464,25;	0,0;	0,0
871,9552612304688;	376,0;	0,0;	0,0
872,0460815429688;	296,5;	0,0;	0,0
872,1369018554688;	281,5;	0,0;	0,0
872,2276000976562;	260,75;	0,0;	0,0
872,318359375;	283,0;	0,0;	0,0
872,4090576171875;	274,0;	0,0;	0,0
872,4996948242188;	262,25;	0,0;	0,0
872,5903930664062;	273,25;	0,0;	0,0
872,680908203125;	270,75;	0,0;	0,0
872,7716064453125;	296,0;	0,0;	0,0
872,8621826171875;	287,5;	0,0;	0,0
872,9527587890625;	263,5;	0,0;	0,0
873,0432739257812;	269,0;	0,0;	0,0
873,1338500976562;	261,75;	0,0;	0,0
873,2243041992188;	253,0;	0,0;	0,0
873,3148193359375;	263,25;	0,0;	0,0
873,4052124023438;	263,25;	0,0;	0,0
873,4957275390625;	256,0;	0,0;	0,0
873,5860595703125;	256,25;	0,0;	0,0
873,6764526367188;	247,0;	0,0;	0,0
873,766845703125;	245,0;	0,0;	0,0
873,857177734375;	239,5;	0,0;	0,0
873,9474487304688;	241,5;	0,0;	0,0
874,0377807617188;	245,5;	0,0;	0,0
874,1279907226562;	234,0;	0,0;	0,0
874,21826171875;	248,0;	0,0;	0,0
874,3084716796875;	271,25;	0,0;	0,0
874,3987426757812;	253,25;	0,0;	0,0
874,4888916015625;	273,25;	0,0;	0,0
874,5790405273438;	259,5;	0,0;	0,0
874,669189453125;	285,0;	0,0;	0,0
874,75927734375;	254,5;	0,0;	0,0
874,849365234375;	250,0;	0,0;	0,0
874,939453125;	235,5;	0,0;	0,0
875,0294799804688;	244,75;	0,0;	0,0
875,1195068359375;	246,5;	0,0;	0,0
875,20947265625;	241,25;	0,0;	0,0
875,2994995117188;	244,5;	0,0;	0,0
875,389404296875;	242,25;	0,0;	0,0
875,4793090820312;	265,75;	0,0;	0,0
875,5692749023438;	257,75;	0,0;	0,0
875,6591186523438;	283,5;	0,0;	0,0
875,7490234375;	243,75;	0,0;	0,0
875,8388061523438;	257,0;	0,0;	0,0
875,9286499023438;	250,25;	0,0;	0,0
876,0184326171875;	240,25;	0,0;	0,0
876,1082153320312;	248,25;	0,0;	0,0
876,197998046875;	258,25;	0,0;	0,0
876,2876586914062;	269,0;	0,0;	0,0
876,3773803710938;	250,5;	0,0;	0,0
876,4671020507812;	239,5;	0,0;	0,0
876,556640625;	236,0;	0,0;	0,0
876,6463012695312;	235,5;	0,0;	0,0
876,7359008789062;	263,0;	0,0;	0,0
876,8255615234375;	239,25;	0,0;	0,0
876,9150390625;	250,25;	0,0;	0,0
877,004638671875;	264,5;	0,0;	0,0
877,0941162109375;	227,25;	0,0;	0,0
877,1836547851562;	248,0;	0,0;	0,0
877,2730712890625;	243,5;	0,0;	0,0
877,3626098632812;	260,0;	0,0;	0,0
877,451904296875;	247,25;	0,0;	0,0
877,5413208007812;	231,5;	0,0;	0,0
877,6306762695312;	273,0;	0,0;	0,0
877,7200927734375;	236,75;	0,0;	0,0
877,8093872070312;	247,0;	0,0;	0,0
877,898681640625;	262,0;	0,0;	0,0
877,988037109375;	249,25;	0,0;	0,0
878,0772705078125;	252,5;	0,0;	0,0
878,16650390625;	239,75;	0,0;	0,0
878,2557373046875;	265,5;	0,0;	0,0
878,3449096679688;	229,0;	0,0;	0,0
878,43408203125;	265,0;	0,0;	0,0
878,5232543945312;	246,75;	0,0;	0,0
878,6123657226562;	244,75;	0,0;	0,0
878,7014770507812;	234,25;	0,0;	0,0
878,7905883789062;	238,5;	0,0;	0,0
878,8795776367188;	257,0;	0,0;	0,0
878,9686279296875;	243,25;	0,0;	0,0
879,0576782226562;	253,75;	0,0;	0,0
879,1466674804688;	269,5;	0,0;	0,0
879,235595703125;	265,75;	0,0;	0,0
879,3245239257812;	260,5;	0,0;	0,0
879,4134521484375;	254,5;	0,0;	0,0
879,5023193359375;	252,75;	0,0;	0,0
879,5911865234375;	256,75;	0,0;	0,0
879,6800537109375;	268,25;	0,0;	0,0
879,7688598632812;	235,25;	0,0;	0,0
879,8577270507812;	252,75;	0,0;	0,0
879,9464721679688;	250,25;	0,0;	0,0
880,0352783203125;	246,25;	0,0;	0,0
880,1239624023438;	248,0;	0,0;	0,0
880,212646484375;	246,0;	0,0;	0,0
880,3013305664062;	260,25;	0,0;	0,0
880,3899536132812;	239,0;	0,0;	0,0
880,4786376953125;	253,5;	0,0;	0,0
880,5671997070312;	256,0;	0,0;	0,0
880,6558837890625;	255,5;	0,0;	0,0
880,7444458007812;	245,5;	0,0;	0,0
880,8330078125;	241,0;	0,0;	0,0
880,9215087890625;	257,75;	0,0;	0,0
881,010009765625;	241,5;	0,0;	0,0
881,0985107421875;	266,25;	0,0;	0,0
881,18701171875;	251,25;	0,0;	0,0
881,2753295898438;	231,5;	0,0;	0,0
881,36376953125;	240,75;	0,0;	0,0
881,4521484375;	256,75;	0,0;	0,0
881,54052734375;	251,5;	0,0;	0,0
881,6288452148438;	242,0;	0,0;	0,0
881,7171630859375;	269,25;	0,0;	0,0
881,8054809570312;	244,75;	0,0;	0,0
881,8937377929688;	257,75;	0,0;	0,0
881,9819946289062;	279,75;	0,0;	0,0
882,0701904296875;	290,0;	0,0;	0,0
882,158447265625;	273,5;	0,0;	0,0
882,24658203125;	319,75;	0,0;	0,0
882,334716796875;	307,75;	0,0;	0,0
882,4228515625;	284,25;	0,0;	0,0
882,510986328125;	270,5;	0,0;	0,0
882,5990600585938;	261,25;	0,0;	0,0
882,6871337890625;	246,75;	0,0;	0,0
882,7752075195312;	248,75;	0,0;	0,0
882,8632202148438;	256,5;	0,0;	0,0
882,951171875;	235,75;	0,0;	0,0
883,0391845703125;	242,5;	0,0;	0,0
883,1271362304688;	256,25;	0,0;	0,0
883,2150268554688;	259,75;	0,0;	0,0
883,3029174804688;	251,25;	0,0;	0,0
883,390869140625;	230,25;	0,0;	0,0
883,4786987304688;	236,75;	0,0;	0,0
883,5665283203125;	253,0;	0,0;	0,0
883,6543579101562;	262,25;	0,0;	0,0
883,7421264648438;	242,5;	0,0;	0,0
883,829833984375;	229,0;	0,0;	0,0
883,9176025390625;	234,25;	0,0;	0,0
884,0053100585938;	255,0;	0,0;	0,0
884,093017578125;	239,5;	0,0;	0,0
884,1806640625;	255,75;	0,0;	0,0
884,268310546875;	243,0;	0,0;	0,0
884,3558959960938;	239,0;	0,0;	0,0
884,4435424804688;	244,5;	0,0;	0,0
884,5310668945312;	262,25;	0,0;	0,0
884,6187133789062;	242,25;	0,0;	0,0
884,7061767578125;	266,5;	0,0;	0,0
884,7937622070312;	232,0;	0,0;	0,0
884,8811645507812;	238,75;	0,0;	0,0
884,9686889648438;	246,5;	0,0;	0,0
885,0560302734375;	248,0;	0,0;	0,0
885,1434936523438;	242,75;	0,0;	0,0
885,2308349609375;	248,0;	0,0;	0,0
885,3182373046875;	237,75;	0,0;	0,0
885,4055786132812;	253,75;	0,0;	0,0
885,4928588867188;	235,5;	0,0;	0,0
885,5801391601562;	249,75;	0,0;	0,0
885,6674194335938;	243,5;	0,0;	0,0
885,7546997070312;	237,75;	0,0;	0,0
885,8419189453125;	244,75;	0,0;	0,0
885,9291381835938;	264,25;	0,0;	0,0
886,016357421875;	252,25;	0,0;	0,0
886,103515625;	239,25;	0,0;	0,0
886,1906127929688;	260,75;	0,0;	0,0
886,2777709960938;	263,25;	0,0;	0,0
886,3648071289062;	265,5;	0,0;	0,0
886,4518432617188;	259,5;	0,0;	0,0
886,5389404296875;	264,5;	0,0;	0,0
886,6259765625;	281,75;	0,0;	0,0
886,7129516601562;	251,5;	0,0;	0,0
886,7999267578125;	243,25;	0,0;	0,0
886,8869018554688;	248,75;	0,0;	0,0
886,9737548828125;	256,75;	0,0;	0,0
887,0606689453125;	272,75;	0,0;	0,0
887,1475830078125;	242,25;	0,0;	0,0
887,2344360351562;	253,0;	0,0;	0,0
887,3212890625;	235,75;	0,0;	0,0
887,4080810546875;	251,25;	0,0;	0,0
887,4948120117188;	242,75;	0,0;	0,0
887,5816650390625;	258,5;	0,0;	0,0
887,6683959960938;	248,5;	0,0;	0,0
887,7550659179688;	231,75;	0,0;	0,0
887,841796875;	241,0;	0,0;	0,0
887,9284057617188;	247,25;	0,0;	0,0
888,0150756835938;	242,25;	0,0;	0,0
888,1016235351562;	250,25;	0,0;	0,0
888,1883544921875;	245,75;	0,0;	0,0
888,2747802734375;	244,0;	0,0;	0,0
888,3614501953125;	236,5;	0,0;	0,0
888,4478759765625;	244,0;	0,0;	0,0
888,534423828125;	247,5;	0,0;	0,0
888,620849609375;	250,75;	0,0;	0,0
888,7073974609375;	240,0;	0,0;	0,0
888,7937622070312;	247,75;	0,0;	0,0
888,8801879882812;	244,5;	0,0;	0,0
888,966552734375;	249,25;	0,0;	0,0
889,0529174804688;	262,25;	0,0;	0,0
889,1392822265625;	234,0;	0,0;	0,0
889,2255859375;	233,75;	0,0;	0,0
889,3118896484375;	251,75;	0,0;	0,0
889,398193359375;	242,0;	0,0;	0,0
889,484375;	245,5;	0,0;	0,0
889,5706787109375;	243,0;	0,0;	0,0
889,6568603515625;	225,75;	0,0;	0,0
889,7430419921875;	272,25;	0,0;	0,0
889,8291625976562;	245,0;	0,0;	0,0
889,9153442382812;	262,25;	0,0;	0,0
890,0014038085938;	245,5;	0,0;	0,0
890,0874633789062;	249,25;	0,0;	0,0
890,173583984375;	244,5;	0,0;	0,0
890,2595825195312;	241,0;	0,0;	0,0
890,3456420898438;	239,0;	0,0;	0,0
890,4315795898438;	244,25;	0,0;	0,0
890,5175170898438;	237,5;	0,0;	0,0
890,6034545898438;	263,75;	0,0;	0,0
890,689453125;	248,5;	0,0;	0,0
890,7753295898438;	241,5;	0,0;	0,0
890,8611450195312;	255,5;	0,0;	0,0
890,947021484375;	238,25;	0,0;	0,0
891,0328369140625;	261,25;	0,0;	0,0
891,1187133789062;	239,25;	0,0;	0,0
891,2044067382812;	266,25;	0,0;	0,0
891,2902221679688;	250,75;	0,0;	0,0
891,3759155273438;	251,5;	0,0;	0,0
891,4616088867188;	238,0;	0,0;	0,0
891,54736328125;	245,0;	0,0;	0,0
891,6329345703125;	225,0;	0,0;	0,0
891,7186279296875;	230,75;	0,0;	0,0
891,80419921875;	250,25;	0,0;	0,0
891,8898315429688;	246,0;	0,0;	0,0
891,975341796875;	272,5;	0,0;	0,0
892,0609130859375;	248,0;	0,0;	0,0
892,1464233398438;	242,25;	0,0;	0,0
892,23193359375;	262,5;	0,0;	0,0
892,3173828125;	260,0;	0,0;	0,0
892,4028930664062;	242,25;	0,0;	0,0
892,4882202148438;	269,0;	0,0;	0,0
892,5736083984375;	266,0;	0,0;	0,0
892,6589965820312;	236,75;	0,0;	0,0
892,744384765625;	253,5;	0,0;	0,0
892,8297119140625;	268,0;	0,0;	0,0
892,9150390625;	261,0;	0,0;	0,0
893,0003051757812;	241,0;	0,0;	0,0
893,0855712890625;	251,75;	0,0;	0,0
893,1708374023438;	224,25;	0,0;	0,0
893,2559814453125;	253,0;	0,0;	0,0
893,3412475585938;	225,5;	0,0;	0,0
893,4263916015625;	244,0;	0,0;	0,0
893,5115356445312;	252,25;	0,0;	0,0
893,5966186523438;	257,0;	0,0;	0,0
893,6817016601562;	235,5;	0,0;	0,0
893,7667846679688;	272,75;	0,0;	0,0
893,8518676757812;	247,5;	0,0;	0,0
893,9368896484375;	249,5;	0,0;	0,0
894,0218505859375;	251,5;	0,0;	0,0
894,1068725585938;	254,75;	0,0;	0,0
894,1918334960938;	239,75;	0,0;	0,0
894,2767944335938;	236,75;	0,0;	0,0
894,3616333007812;	241,25;	0,0;	0,0
894,446533203125;	255,75;	0,0;	0,0
894,5313720703125;	249,25;	0,0;	0,0
894,6162109375;	257,25;	0,0;	0,0
894,7010498046875;	243,75;	0,0;	0,0
894,7858276367188;	251,0;	0,0;	0,0
894,87060546875;	258,25;	0,0;	0,0
894,9553833007812;	259,0;	0,0;	0,0
895,0401000976562;	240,5;	0,0;	0,0
895,1248168945312;	250,75;	0,0;	0,0
895,20947265625;	237,5;	0,0;	0,0
895,2940063476562;	240,5;	0,0;	0,0
895,3787231445312;	244,5;	0,0;	0,0
895,4632568359375;	246,25;	0,0;	0,0
895,5479125976562;	243,25;	0,0;	0,0
895,6324462890625;	228,25;	0,0;	0,0
895,7169799804688;	226,25;	0,0;	0,0
895,8013916015625;	238,75;	0,0;	0,0
895,885986328125;	229,5;	0,0;	0,0
895,9703369140625;	230,5;	0,0;	0,0
896,0548706054688;	251,5;	0,0;	0,0
896,1392211914062;	261,5;	0,0;	0,0
896,2236328125;	254,25;	0,0;	0,0
896,3079833984375;	244,75;	0,0;	0,0
896,392333984375;	240,25;	0,0;	0,0
896,4766235351562;	241,75;	0,0;	0,0
896,5609130859375;	250,75;	0,0;	0,0
896,6452026367188;	237,5;	0,0;	0,0
896,7294921875;	245,75;	0,0;	0,0
896,8136596679688;	236,0;	0,0;	0,0
896,8978881835938;	265,25;	0,0;	0,0
896,9819946289062;	259,25;	0,0;	0,0
897,0662231445312;	235,25;	0,0;	0,0
897,1503295898438;	256,75;	0,0;	0,0
897,234375;	248,5;	0,0;	0,0
897,3184814453125;	248,0;	0,0;	0,0
897,4025268554688;	236,0;	0,0;	0,0
897,486572265625;	234,0;	0,0;	0,0
897,570556640625;	217,75;	0,0;	0,0
897,6546020507812;	255,25;	0,0;	0,0
897,738525390625;	255,0;	0,0;	0,0
897,8224487304688;	245,0;	0,0;	0,0
897,9063720703125;	246,5;	0,0;	0,0
897,9902954101562;	223,75;	0,0;	0,0
898,0741577148438;	236,0;	0,0;	0,0
898,157958984375;	239,5;	0,0;	0,0
898,2417602539062;	241,0;	0,0;	0,0
898,3255615234375;	246,25;	0,0;	0,0
898,4093627929688;	245,75;	0,0;	0,0
898,4931030273438;	255,0;	0,0;	0,0
898,5768432617188;	235,75;	0,0;	0,0
898,6605834960938;	235,0;	0,0;	0,0
898,7442016601562;	248,0;	0,0;	0,0
898,827880859375;	247,25;	0,0;	0,0
898,9114379882812;	240,5;	0,0;	0,0
898,9950561523438;	239,25;	0,0;	0,0
899,07861328125;	225,0;	0,0;	0,0
899,1622314453125;	242,5;	0,0;	0,0
899,2456665039062;	248,0;	0,0;	0,0
899,3292846679688;	251,25;	0,0;	0,0
899,4127197265625;	248,0;	0,0;	0,0
899,4962158203125;	238,5;	0,0;	0,0
899,57958984375;	253,75;	0,0;	0,0
899,6630859375;	263,0;	0,0;	0,0
899,7463989257812;	280,0;	0,0;	0,0
899,8297729492188;	299,0;	0,0;	0,0
899,9130859375;	289,75;	0,0;	0,0
899,9963989257812;	238,75;	0,0;	0,0
900,0797119140625;	233,0;	0,0;	0,0
900,1629638671875;	250,5;	0,0;	0,0
900,2462158203125;	241,5;	0,0;	0,0
900,3294677734375;	240,75;	0,0;	0,0
900,4127197265625;	249,25;	0,0;	0,0
900,495849609375;	254,0;	0,0;	0,0
900,5790405273438;	245,75;	0,0;	0,0
900,662109375;	234,25;	0,0;	0,0
900,7451782226562;	248,25;	0,0;	0,0
900,8283081054688;	243,5;	0,0;	0,0
900,911376953125;	269,5;	0,0;	0,0
900,9944458007812;	230,75;	0,0;	0,0
901,0774536132812;	253,5;	0,0;	0,0
901,1603393554688;	239,5;	0,0;	0,0
901,2433471679688;	243,25;	0,0;	0,0
901,3262939453125;	261,25;	0,0;	0,0
901,4091796875;	247,25;	0,0;	0,0
901,4921264648438;	259,75;	0,0;	0,0
901,574951171875;	220,25;	0,0;	0,0
901,6578369140625;	249,0;	0,0;	0,0
901,7406616210938;	263,0;	0,0;	0,0
901,8234252929688;	258,0;	0,0;	0,0
901,9061889648438;	232,75;	0,0;	0,0
901,9889526367188;	266,5;	0,0;	0,0
902,0715942382812;	257,5;	0,0;	0,0
902,1543579101562;	253,0;	0,0;	0,0
902,237060546875;	250,0;	0,0;	0,0
902,3196411132812;	256,25;	0,0;	0,0
902,40234375;	244,75;	0,0;	0,0
902,48486328125;	234,75;	0,0;	0,0
902,5674438476562;	258,5;	0,0;	0,0
902,6499633789062;	249,5;	0,0;	0,0
902,7325439453125;	290,0;	0,0;	0,0
902,8150024414062;	277,25;	0,0;	0,0
902,8975219726562;	268,75;	0,0;	0,0
902,97998046875;	286,75;	0,0;	0,0
903,0624389648438;	302,25;	0,0;	0,0
903,144775390625;	277,0;	0,0;	0,0
903,227294921875;	259,0;	0,0;	0,0
903,3095703125;	264,25;	0,0;	0,0
903,391845703125;	251,75;	0,0;	0,0
903,4742431640625;	246,5;	0,0;	0,0
903,5565185546875;	270,0;	0,0;	0,0
903,6387939453125;	247,5;	0,0;	0,0
903,7210083007812;	283,0;	0,0;	0,0
903,80322265625;	265,25;	0,0;	0,0
903,8854370117188;	268,25;	0,0;	0,0
903,9675903320312;	267,0;	0,0;	0,0
904,0497436523438;	298,25;	0,0;	0,0
904,1318969726562;	261,0;	0,0;	0,0
904,2139892578125;	320,0;	0,0;	0,0
904,2960205078125;	344,0;	0,0;	0,0
904,3780517578125;	370,0;	0,0;	0,0
904,4600830078125;	420,5;	0,0;	0,0
904,5421142578125;	450,0;	0,0;	0,0
904,6240844726562;	376,0;	0,0;	0,0
904,7060546875;	382,5;	0,0;	0,0
904,7879638671875;	362,0;	0,0;	0,0
904,869873046875;	363,75;	0,0;	0,0
904,9517211914062;	369,0;	0,0;	0,0
905,0336303710938;	316,0;	0,0;	0,0
905,115478515625;	270,75;	0,0;	0,0
905,197265625;	285,0;	0,0;	0,0
905,279052734375;	259,25;	0,0;	0,0
905,36083984375;	258,5;	0,0;	0,0
905,4425659179688;	263,5;	0,0;	0,0
905,5242919921875;	254,25;	0,0;	0,0
905,6060180664062;	260,5;	0,0;	0,0
905,6876220703125;	278,0;	0,0;	0,0
905,769287109375;	307,75;	0,0;	0,0
905,8508911132812;	305,75;	0,0;	0,0
905,9324951171875;	319,5;	0,0;	0,0
906,0140380859375;	358,75;	0,0;	0,0
906,0956420898438;	344,5;	0,0;	0,0
906,1771240234375;	314,75;	0,0;	0,0
906,2586669921875;	312,25;	0,0;	0,0
906,3400268554688;	301,75;	0,0;	0,0
906,4215698242188;	302,75;	0,0;	0,0
906,5029296875;	286,75;	0,0;	0,0
906,5844116210938;	269,75;	0,0;	0,0
906,6657104492188;	267,0;	0,0;	0,0
906,7471313476562;	269,25;	0,0;	0,0
906,828369140625;	265,75;	0,0;	0,0
906,90966796875;	252,75;	0,0;	0,0
906,990966796875;	274,75;	0,0;	0,0
907,0722045898438;	256,5;	0,0;	0,0
907,1534423828125;	257,5;	0,0;	0,0
907,2346801757812;	271,25;	0,0;	0,0
907,3158569335938;	264,75;	0,0;	0,0
907,3970336914062;	254,75;	0,0;	0,0
907,4781494140625;	262,25;	0,0;	0,0
907,559326171875;	253,25;	0,0;	0,0
907,640380859375;	257,5;	0,0;	0,0
907,721435546875;	252,25;	0,0;	0,0
907,802490234375;	273,75;	0,0;	0,0
907,8834838867188;	249,5;	0,0;	0,0
907,9644775390625;	252,5;	0,0;	0,0
908,0454711914062;	243,25;	0,0;	0,0
908,1264038085938;	245,5;	0,0;	0,0
908,2073364257812;	243,75;	0,0;	0,0
908,2882080078125;	234,25;	0,0;	0,0
908,3690795898438;	233,75;	0,0;	0,0
908,449951171875;	241,0;	0,0;	0,0
908,53076171875;	247,25;	0,0;	0,0
908,6115112304688;	245,75;	0,0;	0,0
908,6923217773438;	252,0;	0,0;	0,0
908,7730712890625;	280,25;	0,0;	0,0
908,8538208007812;	267,5;	0,0;	0,0
908,9345092773438;	229,5;	0,0;	0,0
909,0151977539062;	249,25;	0,0;	0,0
909,0958251953125;	242,5;	0,0;	0,0
909,1764526367188;	250,5;	0,0;	0,0
909,257080078125;	244,75;	0,0;	0,0
909,337646484375;	260,25;	0,0;	0,0
909,418212890625;	274,5;	0,0;	0,0
909,4987182617188;	249,75;	0,0;	0,0
909,5792236328125;	246,25;	0,0;	0,0
909,65966796875;	238,75;	0,0;	0,0
909,7401733398438;	232,0;	0,0;	0,0
909,820556640625;	251,25;	0,0;	0,0
909,9010009765625;	228,75;	0,0;	0,0
909,9813842773438;	228,5;	0,0;	0,0
910,061767578125;	241,75;	0,0;	0,0
910,1420288085938;	251,5;	0,0;	0,0
910,222412109375;	235,0;	0,0;	0,0
910,3026733398438;	242,75;	0,0;	0,0
910,3829345703125;	238,75;	0,0;	0,0
910,4631958007812;	234,75;	0,0;	0,0
910,5433959960938;	240,75;	0,0;	0,0
910,6235961914062;	248,5;	0,0;	0,0
910,7037353515625;	228,25;	0,0;	0,0
910,783935546875;	233,75;	0,0;	0,0
910,864013671875;	258,75;	0,0;	0,0
910,944091796875;	239,75;	0,0;	0,0
911,024169921875;	239,25;	0,0;	0,0
911,104248046875;	242,0;	0,0;	0,0
911,1842651367188;	253,75;	0,0;	0,0
911,2642822265625;	242,75;	0,0;	0,0
911,3441772460938;	237,75;	0,0;	0,0
911,4241943359375;	229,5;	0,0;	0,0
911,5040893554688;	246,0;	0,0;	0,0
911,5840454101562;	256,75;	0,0;	0,0
911,6638793945312;	256,75;	0,0;	0,0
911,7437133789062;	250,25;	0,0;	0,0
911,8235473632812;	258,25;	0,0;	0,0
911,9033813476562;	259,5;	0,0;	0,0
911,983154296875;	263,25;	0,0;	0,0
912,0629272460938;	241,75;	0,0;	0,0
912,1426391601562;	253,5;	0,0;	0,0
912,2223510742188;	238,0;	0,0;	0,0
912,302001953125;	258,75;	0,0;	0,0
912,3817138671875;	233,5;	0,0;	0,0
912,4613037109375;	243,25;	0,0;	0,0
912,5409545898438;	256,75;	0,0;	0,0
912,6205444335938;	245,5;	0,0;	0,0
912,7000732421875;	253,25;	0,0;	0,0
912,7796630859375;	214,25;	0,0;	0,0
912,8590698242188;	254,0;	0,0;	0,0
912,9385986328125;	238,75;	0,0;	0,0
913,0181274414062;	244,25;	0,0;	0,0
913,0974731445312;	231,0;	0,0;	0,0
913,1769409179688;	251,5;	0,0;	0,0
913,2562866210938;	229,0;	0,0;	0,0
913,335693359375;	240,75;	0,0;	0,0
913,4149780273438;	231,5;	0,0;	0,0
913,494384765625;	236,5;	0,0;	0,0
913,5735473632812;	228,25;	0,0;	0,0
913,6528930664062;	238,5;	0,0;	0,0
913,7321166992188;	260,75;	0,0;	0,0
913,811279296875;	241,25;	0,0;	0,0
913,8905639648438;	239,75;	0,0;	0,0
913,9696655273438;	249,5;	0,0;	0,0
914,048828125;	233,75;	0,0;	0,0
914,1279296875;	240,75;	0,0;	0,0
914,20703125;	232,5;	0,0;	0,0
914,2861328125;	248,75;	0,0;	0,0
914,3651733398438;	232,75;	0,0;	0,0
914,4441528320312;	248,75;	0,0;	0,0
914,523193359375;	230,25;	0,0;	0,0
914,6021728515625;	244,25;	0,0;	0,0
914,68115234375;	243,25;	0,0;	0,0
914,7600708007812;	210,75;	0,0;	0,0
914,8389282226562;	260,75;	0,0;	0,0
914,9178466796875;	252,5;	0,0;	0,0
914,9967041015625;	256,5;	0,0;	0,0
915,0755004882812;	233,0;	0,0;	0,0
915,1543579101562;	252,75;	0,0;	0,0
915,2330932617188;	229,25;	0,0;	0,0
915,3118896484375;	250,25;	0,0;	0,0
915,3905639648438;	262,75;	0,0;	0,0
915,4692993164062;	245,5;	0,0;	0,0
915,5479736328125;	248,75;	0,0;	0,0
915,6266479492188;	232,5;	0,0;	0,0
915,7052612304688;	238,5;	0,0;	0,0
915,7838745117188;	248,25;	0,0;	0,0
915,8624877929688;	221,75;	0,0;	0,0
915,9409790039062;	238,75;	0,0;	0,0
916,01953125;	233,75;	0,0;	0,0
916,0980834960938;	239,75;	0,0;	0,0
916,1765747070312;	253,5;	0,0;	0,0
916,2550048828125;	234,25;	0,0;	0,0
916,3334350585938;	237,25;	0,0;	0,0
916,411865234375;	246,25;	0,0;	0,0
916,4901733398438;	249,25;	0,0;	0,0
916,568603515625;	246,25;	0,0;	0,0
916,6469116210938;	253,0;	0,0;	0,0
916,7252807617188;	240,5;	0,0;	0,0
916,803466796875;	254,0;	0,0;	0,0
916,8818359375;	247,5;	0,0;	0,0
916,9600219726562;	235,0;	0,0;	0,0
917,0382690429688;	248,5;	0,0;	0,0
917,1163940429688;	268,75;	0,0;	0,0
917,1946411132812;	258,0;	0,0;	0,0
917,272705078125;	236,25;	0,0;	0,0
917,350830078125;	243,5;	0,0;	0,0
917,428955078125;	251,75;	0,0;	0,0
917,507080078125;	253,25;	0,0;	0,0
917,5850830078125;	238,5;	0,0;	0,0
917,6630859375;	237,5;	0,0;	0,0
917,7410888671875;	244,25;	0,0;	0,0
917,819091796875;	226,75;	0,0;	0,0
917,8970336914062;	223,5;	0,0;	0,0
917,9749145507812;	243,25;	0,0;	0,0
918,0528564453125;	235,25;	0,0;	0,0
918,1307373046875;	226,0;	0,0;	0,0
918,2085571289062;	236,75;	0,0;	0,0
918,286376953125;	255,75;	0,0;	0,0
918,3641357421875;	241,5;	0,0;	0,0
918,4419555664062;	244,0;	0,0;	0,0
918,5197143554688;	241,5;	0,0;	0,0
918,597412109375;	217,25;	0,0;	0,0
918,6751098632812;	255,25;	0,0;	0,0
918,7528076171875;	231,25;	0,0;	0,0
918,8304443359375;	226,5;	0,0;	0,0
918,9080810546875;	258,75;	0,0;	0,0
918,9856567382812;	255,0;	0,0;	0,0
919,0632934570312;	241,5;	0,0;	0,0
919,1408081054688;	231,0;	0,0;	0,0
919,2183227539062;	230,75;	0,0;	0,0
919,2958374023438;	233,75;	0,0;	0,0
919,373291015625;	244,5;	0,0;	0,0
919,4507446289062;	257,75;	0,0;	0,0
919,5281982421875;	239,5;	0,0;	0,0
919,6056518554688;	228,75;	0,0;	0,0
919,6830444335938;	235,75;	0,0;	0,0
919,7603759765625;	239,25;	0,0;	0,0
919,837646484375;	251,25;	0,0;	0,0
919,9149780273438;	247,25;	0,0;	0,0
919,9921875;	211,25;	0,0;	0,0
920,0695190429688;	231,25;	0,0;	0,0
920,1466674804688;	238,0;	0,0;	0,0
920,2239990234375;	232,5;	0,0;	0,0
920,3010864257812;	242,0;	0,0;	0,0
920,3783569335938;	238,5;	0,0;	0,0
920,4553833007812;	243,0;	0,0;	0,0
920,5325927734375;	222,0;	0,0;	0,0
920,609619140625;	242,25;	0,0;	0,0
920,6866455078125;	239,5;	0,0;	0,0
920,763671875;	227,75;	0,0;	0,0
920,8406982421875;	253,0;	0,0;	0,0
920,9176635742188;	250,0;	0,0;	0,0
920,99462890625;	253,5;	0,0;	0,0
921,0715942382812;	246,25;	0,0;	0,0
921,1485595703125;	230,75;	0,0;	0,0
921,2254028320312;	253,5;	0,0;	0,0
921,30224609375;	246,5;	0,0;	0,0
921,3790893554688;	252,75;	0,0;	0,0
921,4559326171875;	239,0;	0,0;	0,0
921,53271484375;	246,25;	0,0;	0,0
921,6094970703125;	241,25;	0,0;	0,0
921,6862182617188;	227,75;	0,0;	0,0
921,7628784179688;	243,75;	0,0;	0,0
921,839599609375;	235,5;	0,0;	0,0
921,9163208007812;	254,0;	0,0;	0,0
921,992919921875;	238,5;	0,0;	0,0
922,0695190429688;	245,25;	0,0;	0,0
922,1461181640625;	236,25;	0,0;	0,0
922,2227172851562;	227,75;	0,0;	0,0
922,2992553710938;	213,0;	0,0;	0,0
922,375732421875;	244,25;	0,0;	0,0
922,4522094726562;	237,0;	0,0;	0,0
922,5286865234375;	228,5;	0,0;	0,0
922,6051025390625;	245,25;	0,0;	0,0
922,6815795898438;	243,5;	0,0;	0,0
922,7579345703125;	249,5;	0,0;	0,0
922,8342895507812;	230,0;	0,0;	0,0
922,9107055664062;	242,75;	0,0;	0,0
922,9869995117188;	228,0;	0,0;	0,0
923,063232421875;	239,75;	0,0;	0,0
923,1394653320312;	235,25;	0,0;	0,0
923,2158203125;	226,0;	0,0;	0,0
923,2919311523438;	232,25;	0,0;	0,0
923,3682250976562;	252,0;	0,0;	0,0
923,4442749023438;	232,25;	0,0;	0,0
923,5205688476562;	248,0;	0,0;	0,0
923,5966186523438;	261,0;	0,0;	0,0
923,6727294921875;	244,5;	0,0;	0,0
923,748779296875;	228,0;	0,0;	0,0
923,8248291015625;	223,5;	0,0;	0,0
923,9008178710938;	228,5;	0,0;	0,0
923,976806640625;	240,5;	0,0;	0,0
924,0527954101562;	240,75;	0,0;	0,0
924,128662109375;	242,0;	0,0;	0,0
924,2046508789062;	241,25;	0,0;	0,0
924,2805786132812;	241,75;	0,0;	0,0
924,3564453125;	243,25;	0,0;	0,0
924,4322509765625;	239,75;	0,0;	0,0
924,5081176757812;	227,5;	0,0;	0,0
924,5838623046875;	229,5;	0,0;	0,0
924,65966796875;	221,25;	0,0;	0,0
924,7353515625;	228,0;	0,0;	0,0
924,8111572265625;	236,25;	0,0;	0,0
924,8868408203125;	237,75;	0,0;	0,0
924,9624633789062;	243,25;	0,0;	0,0
925,0381469726562;	244,5;	0,0;	0,0
925,11376953125;	243,5;	0,0;	0,0
925,1893920898438;	245,5;	0,0;	0,0
925,2649536132812;	247,75;	0,0;	0,0
925,3404541015625;	261,0;	0,0;	0,0
925,416015625;	265,75;	0,0;	0,0
925,4915161132812;	266,25;	0,0;	0,0
925,5669555664062;	254,75;	0,0;	0,0
925,6423950195312;	283,25;	0,0;	0,0
925,7178955078125;	269,5;	0,0;	0,0
925,793212890625;	320,25;	0,0;	0,0
925,8685913085938;	329,0;	0,0;	0,0
925,9439697265625;	297,75;	0,0;	0,0
926,0193481445312;	347,5;	0,0;	0,0
926,0946044921875;	342,25;	0,0;	0,0
926,1698608398438;	378,5;	0,0;	0,0
926,2451171875;	389,0;	0,0;	0,0
926,3203735351562;	378,25;	0,0;	0,0
926,3955078125;	412,25;	0,0;	0,0
926,470703125;	378,0;	0,0;	0,0
926,5458374023438;	408,25;	0,0;	0,0
926,6209716796875;	0,0;	0,0;	0,0
