-0.5	2.0
Integration time [ms]:	1.05
Averaging Nr. [scans]:1
Smoothing Nr. [pixels]:0
Data measured with spectrometer [name]:b'1703277U8'
Wave	;Sample	;Dark	;Reference	;Scope	
[nm]	;[counts]	;[counts]	;[counts]	
 
493,2108154296875;	506,75;	0,0;	0,0
493,2895202636719;	404,75;	0,0;	0,0
493,36822509765625;	324,5;	0,0;	0,0
493,4468994140625;	308,25;	0,0;	0,0
493,52557373046875;	334,5;	0,0;	0,0
493,6042175292969;	391,75;	0,0;	0,0
493,6828918457031;	496,75;	0,0;	0,0
493,7615051269531;	523,25;	0,0;	0,0
493,8401184082031;	386,0;	0,0;	0,0
493,9187316894531;	323,25;	0,0;	0,0
493,9973449707031;	292,75;	0,0;	0,0
494,075927734375;	311,25;	0,0;	0,0
494,1545104980469;	303,0;	0,0;	0,0
494,2330627441406;	304,5;	0,0;	0,0
494,3116149902344;	311,0;	0,0;	0,0
494,3901672363281;	334,25;	0,0;	0,0
494,4686584472656;	387,0;	0,0;	0,0
494,5472106933594;	365,5;	0,0;	0,0
494,6257019042969;	321,75;	0,0;	0,0
494,7041931152344;	302,0;	0,0;	0,0
494,78265380859375;	344,5;	0,0;	0,0
494,86114501953125;	353,0;	0,0;	0,0
494,9395751953125;	329,25;	0,0;	0,0
495,0180358886719;	336,75;	0,0;	0,0
495,096435546875;	367,0;	0,0;	0,0
495,1748962402344;	360,25;	0,0;	0,0
495,2532653808594;	375,5;	0,0;	0,0
495,3316650390625;	424,5;	0,0;	0,0
495,4100341796875;	651,25;	0,0;	0,0
495,4884338378906;	1761,0;	0,0;	0,0
495,5667724609375;	4992,0;	0,0;	0,0
495,6451110839844;	5192,25;	0,0;	0,0
495,72344970703125;	1120,25;	0,0;	0,0
495,8017883300781;	439,5;	0,0;	0,0
495,8800964355469;	403,5;	0,0;	0,0
495,9583435058594;	356,5;	0,0;	0,0
496,0366516113281;	358,5;	0,0;	0,0
496,11492919921875;	379,5;	0,0;	0,0
496,19317626953125;	342,25;	0,0;	0,0
496,27142333984375;	361,25;	0,0;	0,0
496,34967041015625;	394,25;	0,0;	0,0
496,4278869628906;	566,75;	0,0;	0,0
496,506103515625;	555,75;	0,0;	0,0
496,58428955078125;	431,0;	0,0;	0,0
496,6625061035156;	434,5;	0,0;	0,0
496,74066162109375;	389,5;	0,0;	0,0
496,8188171386719;	422,75;	0,0;	0,0
496,89697265625;	432,75;	0,0;	0,0
496,9751281738281;	391,5;	0,0;	0,0
497,0532531738281;	368,25;	0,0;	0,0
497,1313171386719;	428,75;	0,0;	0,0
497,2094421386719;	397,25;	0,0;	0,0
497,28753662109375;	356,25;	0,0;	0,0
497,3656005859375;	367,75;	0,0;	0,0
497,44366455078125;	355,5;	0,0;	0,0
497,521728515625;	358,25;	0,0;	0,0
497,59979248046875;	380,0;	0,0;	0,0
497,67779541015625;	438,0;	0,0;	0,0
497,7558288574219;	432,75;	0,0;	0,0
497,83380126953125;	427,75;	0,0;	0,0
497,91180419921875;	464,0;	0,0;	0,0
497,9897766113281;	686,0;	0,0;	0,0
498,0677490234375;	933,0;	0,0;	0,0
498,1457214355469;	1037,25;	0,0;	0,0
498,2236633300781;	979,25;	0,0;	0,0
498,30157470703125;	756,5;	0,0;	0,0
498,3794860839844;	763,5;	0,0;	0,0
498,4573974609375;	584,5;	0,0;	0,0
498,5353088378906;	408,0;	0,0;	0,0
498,6131896972656;	393,5;	0,0;	0,0
498,6910705566406;	426,75;	0,0;	0,0
498,7688903808594;	445,25;	0,0;	0,0
498,84674072265625;	431,75;	0,0;	0,0
498,924560546875;	541,0;	0,0;	0,0
499,0024108886719;	536,75;	0,0;	0,0
499,0802307128906;	391,75;	0,0;	0,0
499,1579895019531;	387,0;	0,0;	0,0
499,23577880859375;	484,75;	0,0;	0,0
499,3135681152344;	433,0;	0,0;	0,0
499,3913269042969;	377,25;	0,0;	0,0
499,4690856933594;	347,25;	0,0;	0,0
499,5467834472656;	340,0;	0,0;	0,0
499,6245422363281;	348,75;	0,0;	0,0
499,7022399902344;	389,0;	0,0;	0,0
499,7799377441406;	480,0;	0,0;	0,0
499,8576354980469;	468,5;	0,0;	0,0
499,935302734375;	559,5;	0,0;	0,0
500,0129699707031;	918,25;	0,0;	0,0
500,090576171875;	778,0;	0,0;	0,0
500,1682434082031;	500,0;	0,0;	0,0
500,2458801269531;	451,25;	0,0;	0,0
500,323486328125;	659,75;	0,0;	0,0
500,40106201171875;	1249,5;	0,0;	0,0
500,47869873046875;	1545,5;	0,0;	0,0
500,5562744140625;	832,5;	0,0;	0,0
500,6337890625;	523,0;	0,0;	0,0
500,71136474609375;	418,25;	0,0;	0,0
500,7889099121094;	381,75;	0,0;	0,0
500,8664245605469;	393,75;	0,0;	0,0
500,9439392089844;	482,75;	0,0;	0,0
501,02142333984375;	747,0;	0,0;	0,0
501,09893798828125;	723,5;	0,0;	0,0
501,1764221191406;	469,25;	0,0;	0,0
501,25384521484375;	578,75;	0,0;	0,0
501,33135986328125;	728,25;	0,0;	0,0
501,40875244140625;	591,5;	0,0;	0,0
501,4862060546875;	434,75;	0,0;	0,0
501,5636291503906;	447,5;	0,0;	0,0
501,6410217285156;	575,25;	0,0;	0,0
501,7184143066406;	649,5;	0,0;	0,0
501,7957763671875;	419,25;	0,0;	0,0
501,8731384277344;	368,25;	0,0;	0,0
501,95050048828125;	406,75;	0,0;	0,0
502,0278625488281;	558,0;	0,0;	0,0
502,10516357421875;	545,25;	0,0;	0,0
502,1824951171875;	412,0;	0,0;	0,0
502,2597961425781;	376,5;	0,0;	0,0
502,33709716796875;	362,25;	0,0;	0,0
502,41436767578125;	398,0;	0,0;	0,0
502,4916687011719;	483,5;	0,0;	0,0
502,56890869140625;	529,0;	0,0;	0,0
502,6461486816406;	533,25;	0,0;	0,0
502,7233581542969;	435,0;	0,0;	0,0
502,8006286621094;	353,5;	0,0;	0,0
502,8778076171875;	350,25;	0,0;	0,0
502,9549865722656;	336,0;	0,0;	0,0
503,03216552734375;	363,0;	0,0;	0,0
503,1093444824219;	336,0;	0,0;	0,0
503,1865234375;	358,75;	0,0;	0,0
503,2636413574219;	356,0;	0,0;	0,0
503,34075927734375;	361,0;	0,0;	0,0
503,41790771484375;	399,5;	0,0;	0,0
503,4949951171875;	396,0;	0,0;	0,0
503,57208251953125;	392,75;	0,0;	0,0
503,6492004394531;	374,5;	0,0;	0,0
503,72625732421875;	417,5;	0,0;	0,0
503,8033142089844;	472,75;	0,0;	0,0
503,88037109375;	581,0;	0,0;	0,0
503,9573974609375;	797,25;	0,0;	0,0
504,034423828125;	729,75;	0,0;	0,0
504,1114196777344;	450,75;	0,0;	0,0
504,18841552734375;	357,75;	0,0;	0,0
504,2654113769531;	378,5;	0,0;	0,0
504,3423767089844;	348,5;	0,0;	0,0
504,4193115234375;	346,25;	0,0;	0,0
504,49627685546875;	344,25;	0,0;	0,0
504,5732421875;	361,75;	0,0;	0,0
504,650146484375;	403,75;	0,0;	0,0
504,7270202636719;	519,25;	0,0;	0,0
504,8039245605469;	745,5;	0,0;	0,0
504,880859375;	703,0;	0,0;	0,0
504,95770263671875;	539,75;	0,0;	0,0
505,0345458984375;	579,75;	0,0;	0,0
505,1114196777344;	406,5;	0,0;	0,0
505,1882629394531;	348,75;	0,0;	0,0
505,2650451660156;	358,0;	0,0;	0,0
505,34185791015625;	340,75;	0,0;	0,0
505,4186706542969;	344,25;	0,0;	0,0
505,4954528808594;	344,75;	0,0;	0,0
505,57220458984375;	326,25;	0,0;	0,0
505,6489562988281;	321,0;	0,0;	0,0
505,72576904296875;	314,75;	0,0;	0,0
505,802490234375;	311,0;	0,0;	0,0
505,87921142578125;	334,25;	0,0;	0,0
505,9559020996094;	341,5;	0,0;	0,0
506,0326232910156;	340,5;	0,0;	0,0
506,1092834472656;	359,25;	0,0;	0,0
506,1859436035156;	389,0;	0,0;	0,0
506,2626037597656;	499,5;	0,0;	0,0
506,3392639160156;	605,25;	0,0;	0,0
506,4159240722656;	487,75;	0,0;	0,0
506,4925231933594;	388,5;	0,0;	0,0
506,56915283203125;	411,0;	0,0;	0,0
506,645751953125;	476,25;	0,0;	0,0
506,72235107421875;	599,5;	0,0;	0,0
506,7989196777344;	496,25;	0,0;	0,0
506,8754577636719;	383,75;	0,0;	0,0
506,9520263671875;	392,0;	0,0;	0,0
507,028564453125;	454,5;	0,0;	0,0
507,1050720214844;	442,25;	0,0;	0,0
507,1816101074219;	429,0;	0,0;	0,0
507,2580871582031;	557,25;	0,0;	0,0
507,3345642089844;	635,5;	0,0;	0,0
507,4110412597656;	449,75;	0,0;	0,0
507,487548828125;	402,5;	0,0;	0,0
507,56396484375;	368,5;	0,0;	0,0
507,640380859375;	439,5;	0,0;	0,0
507,71685791015625;	574,25;	0,0;	0,0
507,7932434082031;	673,75;	0,0;	0,0
507,86962890625;	448,25;	0,0;	0,0
507,9460144042969;	348,75;	0,0;	0,0
508,02239990234375;	339,75;	0,0;	0,0
508,0987548828125;	418,0;	0,0;	0,0
508,17510986328125;	480,75;	0,0;	0,0
508,2514343261719;	418,5;	0,0;	0,0
508,3277893066406;	327,25;	0,0;	0,0
508,4040832519531;	318,75;	0,0;	0,0
508,4803771972656;	314,5;	0,0;	0,0
508,556640625;	314,25;	0,0;	0,0
508,6329650878906;	324,25;	0,0;	0,0
508,7091979980469;	340,0;	0,0;	0,0
508,78546142578125;	343,25;	0,0;	0,0
508,8616943359375;	390,75;	0,0;	0,0
508,93792724609375;	397,0;	0,0;	0,0
509,0141296386719;	377,0;	0,0;	0,0
509,09033203125;	328,0;	0,0;	0,0
509,1665344238281;	353,0;	0,0;	0,0
509,24267578125;	298,75;	0,0;	0,0
509,31884765625;	356,5;	0,0;	0,0
509,3949890136719;	356,0;	0,0;	0,0
509,4711608886719;	436,5;	0,0;	0,0
509,5472717285156;	506,0;	0,0;	0,0
509,62335205078125;	512,25;	0,0;	0,0
509,699462890625;	573,75;	0,0;	0,0
509,77557373046875;	498,5;	0,0;	0,0
509,85162353515625;	364,75;	0,0;	0,0
509,92767333984375;	342,5;	0,0;	0,0
510,00372314453125;	329,5;	0,0;	0,0
510,0798034667969;	331,75;	0,0;	0,0
510,15582275390625;	319,75;	0,0;	0,0
510,2318115234375;	336,75;	0,0;	0,0
510,3078308105469;	381,25;	0,0;	0,0
510,3837890625;	470,25;	0,0;	0,0
510,45977783203125;	429,75;	0,0;	0,0
510,5357360839844;	498,25;	0,0;	0,0
510,6116943359375;	642,75;	0,0;	0,0
510,6876220703125;	471,5;	0,0;	0,0
510,7635498046875;	423,0;	0,0;	0,0
510,8394470214844;	554,75;	0,0;	0,0
510,9153747558594;	585,0;	0,0;	0,0
510,9912414550781;	378,25;	0,0;	0,0
511,0671081542969;	343,75;	0,0;	0,0
511,1429443359375;	340,5;	0,0;	0,0
511,2188415527344;	343,25;	0,0;	0,0
511,2946472167969;	306,5;	0,0;	0,0
511,3704833984375;	335,5;	0,0;	0,0
511,4462890625;	323,25;	0,0;	0,0
511,5220947265625;	334,25;	0,0;	0,0
511,59783935546875;	324,5;	0,0;	0,0
511,6736145019531;	324,75;	0,0;	0,0
511,7494201660156;	328,75;	0,0;	0,0
511,82513427734375;	341,5;	0,0;	0,0
511,90087890625;	367,5;	0,0;	0,0
511,97662353515625;	392,25;	0,0;	0,0
512,0523071289062;	389,25;	0,0;	0,0
512,1280517578125;	412,75;	0,0;	0,0
512,2036743164062;	476,75;	0,0;	0,0
512,2793579101562;	529,25;	0,0;	0,0
512,3550415039062;	564,5;	0,0;	0,0
512,4306640625;	523,5;	0,0;	0,0
512,5062866210938;	455,75;	0,0;	0,0
512,5819702148438;	480,25;	0,0;	0,0
512,657470703125;	378,5;	0,0;	0,0
512,7330932617188;	353,75;	0,0;	0,0
512,8087158203125;	373,25;	0,0;	0,0
512,88427734375;	396,75;	0,0;	0,0
512,9598999023438;	429,5;	0,0;	0,0
513,035400390625;	482,75;	0,0;	0,0
513,1109008789062;	561,75;	0,0;	0,0
513,1864624023438;	850,0;	0,0;	0,0
513,2619018554688;	752,75;	0,0;	0,0
513,33740234375;	434,25;	0,0;	0,0
513,4129638671875;	410,25;	0,0;	0,0
513,4884033203125;	429,75;	0,0;	0,0
513,5638427734375;	600,5;	0,0;	0,0
513,6392822265625;	651,25;	0,0;	0,0
513,7147216796875;	993,0;	0,0;	0,0
513,7901000976562;	1762,5;	0,0;	0,0
513,8655395507812;	1074,25;	0,0;	0,0
513,94091796875;	427,75;	0,0;	0,0
514,0162963867188;	511,5;	0,0;	0,0
514,0916748046875;	552,5;	0,0;	0,0
514,1669921875;	537,25;	0,0;	0,0
514,2423706054688;	381,0;	0,0;	0,0
514,3176879882812;	357,75;	0,0;	0,0
514,3930053710938;	367,75;	0,0;	0,0
514,4683837890625;	391,75;	0,0;	0,0
514,5435791015625;	359,5;	0,0;	0,0
514,618896484375;	461,5;	0,0;	0,0
514,694091796875;	487,25;	0,0;	0,0
514,7694091796875;	422,75;	0,0;	0,0
514,8446655273438;	411,25;	0,0;	0,0
514,9198608398438;	483,75;	0,0;	0,0
514,9950561523438;	430,25;	0,0;	0,0
515,0703125;	442,5;	0,0;	0,0
515,1454467773438;	403,75;	0,0;	0,0
515,220703125;	413,0;	0,0;	0,0
515,2957763671875;	362,75;	0,0;	0,0
515,3709716796875;	380,0;	0,0;	0,0
515,4461059570312;	369,75;	0,0;	0,0
515,521240234375;	349,75;	0,0;	0,0
515,5963745117188;	336,0;	0,0;	0,0
515,6714477539062;	377,75;	0,0;	0,0
515,7465209960938;	385,0;	0,0;	0,0
515,8215942382812;	424,25;	0,0;	0,0
515,896728515625;	418,25;	0,0;	0,0
515,9717407226562;	470,5;	0,0;	0,0
516,0467529296875;	598,25;	0,0;	0,0
516,121826171875;	728,0;	0,0;	0,0
516,1968383789062;	509,5;	0,0;	0,0
516,2717895507812;	425,5;	0,0;	0,0
516,3468017578125;	548,25;	0,0;	0,0
516,4217529296875;	702,5;	0,0;	0,0
516,4967651367188;	1228,0;	0,0;	0,0
516,5716552734375;	2966,25;	0,0;	0,0
516,6466674804688;	2587,25;	0,0;	0,0
516,7215576171875;	1040,0;	0,0;	0,0
516,7964477539062;	777,75;	0,0;	0,0
516,871337890625;	515,5;	0,0;	0,0
516,9461669921875;	796,5;	0,0;	0,0
517,0211181640625;	1141,0;	0,0;	0,0
517,0960083007812;	693,0;	0,0;	0,0
517,1707763671875;	440,75;	0,0;	0,0
517,24560546875;	385,75;	0,0;	0,0
517,3204345703125;	357,75;	0,0;	0,0
517,3952026367188;	367,0;	0,0;	0,0
517,4700927734375;	330,5;	0,0;	0,0
517,5448608398438;	335,25;	0,0;	0,0
517,61962890625;	327,25;	0,0;	0,0
517,6943969726562;	353,75;	0,0;	0,0
517,7691040039062;	345,5;	0,0;	0,0
517,8438110351562;	350,75;	0,0;	0,0
517,9185791015625;	364,0;	0,0;	0,0
517,9932250976562;	363,5;	0,0;	0,0
518,0679321289062;	363,75;	0,0;	0,0
518,1426391601562;	438,25;	0,0;	0,0
518,21728515625;	521,75;	0,0;	0,0
518,2919311523438;	458,0;	0,0;	0,0
518,3665771484375;	373,75;	0,0;	0,0
518,4412231445312;	372,25;	0,0;	0,0
518,515869140625;	343,0;	0,0;	0,0
518,5903930664062;	387,25;	0,0;	0,0
518,6650390625;	387,0;	0,0;	0,0
518,7396240234375;	421,25;	0,0;	0,0
518,8141479492188;	452,5;	0,0;	0,0
518,8887329101562;	583,0;	0,0;	0,0
518,9631958007812;	1064,0;	0,0;	0,0
519,0377807617188;	1556,0;	0,0;	0,0
519,1123046875;	1399,5;	0,0;	0,0
519,186767578125;	697,25;	0,0;	0,0
519,2612915039062;	575,5;	0,0;	0,0
519,3358154296875;	828,5;	0,0;	0,0
519,41015625;	707,0;	0,0;	0,0
519,4846801757812;	470,25;	0,0;	0,0
519,5591430664062;	400,0;	0,0;	0,0
519,633544921875;	433,75;	0,0;	0,0
519,7080078125;	456,75;	0,0;	0,0
519,7822875976562;	401,5;	0,0;	0,0
519,856689453125;	373,5;	0,0;	0,0
519,93115234375;	371,0;	0,0;	0,0
520,0054321289062;	446,25;	0,0;	0,0
520,0797729492188;	578,25;	0,0;	0,0
520,1541748046875;	449,75;	0,0;	0,0
520,2283935546875;	399,25;	0,0;	0,0
520,302734375;	538,5;	0,0;	0,0
520,3770751953125;	507,5;	0,0;	0,0
520,4512939453125;	551,0;	0,0;	0,0
520,525634765625;	460,75;	0,0;	0,0
520,5997924804688;	451,5;	0,0;	0,0
520,674072265625;	732,25;	0,0;	0,0
520,7483520507812;	692,25;	0,0;	0,0
520,822509765625;	409,5;	0,0;	0,0
520,8967895507812;	399,25;	0,0;	0,0
520,970947265625;	341,75;	0,0;	0,0
521,0451049804688;	337,5;	0,0;	0,0
521,1192626953125;	353,0;	0,0;	0,0
521,1934204101562;	356,25;	0,0;	0,0
521,267578125;	443,0;	0,0;	0,0
521,3417358398438;	550,25;	0,0;	0,0
521,415771484375;	699,25;	0,0;	0,0
521,4898681640625;	710,5;	0,0;	0,0
521,5640258789062;	607,0;	0,0;	0,0
521,6380615234375;	574,0;	0,0;	0,0
521,712158203125;	457,0;	0,0;	0,0
521,7862548828125;	370,0;	0,0;	0,0
521,8602294921875;	371,75;	0,0;	0,0
521,9342651367188;	349,0;	0,0;	0,0
522,0082397460938;	339,5;	0,0;	0,0
522,0822143554688;	355,5;	0,0;	0,0
522,1563110351562;	351,5;	0,0;	0,0
522,230224609375;	386,75;	0,0;	0,0
522,30419921875;	402,5;	0,0;	0,0
522,3781127929688;	570,25;	0,0;	0,0
522,4520874023438;	1052,75;	0,0;	0,0
522,5260009765625;	2476,75;	0,0;	0,0
522,599853515625;	2525,25;	0,0;	0,0
522,6737670898438;	845,75;	0,0;	0,0
522,7476806640625;	481,5;	0,0;	0,0
522,821533203125;	556,25;	0,0;	0,0
522,8953857421875;	539,25;	0,0;	0,0
522,96923828125;	556,5;	0,0;	0,0
523,0430297851562;	931,75;	0,0;	0,0
523,1168823242188;	2180,25;	0,0;	0,0
523,190673828125;	2113,5;	0,0;	0,0
523,2644653320312;	730,5;	0,0;	0,0
523,3382568359375;	403,25;	0,0;	0,0
523,4119873046875;	419,75;	0,0;	0,0
523,4857788085938;	382,0;	0,0;	0,0
523,5595703125;	332,75;	0,0;	0,0
523,6332397460938;	332,25;	0,0;	0,0
523,7069702148438;	346,5;	0,0;	0,0
523,7807006835938;	358,25;	0,0;	0,0
523,8543701171875;	322,5;	0,0;	0,0
523,927978515625;	363,75;	0,0;	0,0
524,0016479492188;	349,0;	0,0;	0,0
524,0753173828125;	476,75;	0,0;	0,0
524,14892578125;	443,5;	0,0;	0,0
524,2225341796875;	374,75;	0,0;	0,0
524,2962036132812;	365,75;	0,0;	0,0
524,3698120117188;	359,5;	0,0;	0,0
524,443359375;	353,75;	0,0;	0,0
524,5169067382812;	364,25;	0,0;	0,0
524,5905151367188;	314,75;	0,0;	0,0
524,6640014648438;	366,25;	0,0;	0,0
524,7376098632812;	353,75;	0,0;	0,0
524,8110961914062;	376,75;	0,0;	0,0
524,8845825195312;	443,5;	0,0;	0,0
524,9580688476562;	437,75;	0,0;	0,0
525,0315551757812;	362,5;	0,0;	0,0
525,10498046875;	360,25;	0,0;	0,0
525,178466796875;	373,25;	0,0;	0,0
525,2518920898438;	403,25;	0,0;	0,0
525,3253173828125;	375,25;	0,0;	0,0
525,3987426757812;	363,25;	0,0;	0,0
525,47216796875;	348,0;	0,0;	0,0
525,5455322265625;	347,5;	0,0;	0,0
525,618896484375;	356,5;	0,0;	0,0
525,6922607421875;	349,5;	0,0;	0,0
525,765625;	370,5;	0,0;	0,0
525,8389892578125;	362,0;	0,0;	0,0
525,9122924804688;	371,75;	0,0;	0,0
525,9856567382812;	425,75;	0,0;	0,0
526,0588989257812;	480,75;	0,0;	0,0
526,1322021484375;	575,25;	0,0;	0,0
526,2054443359375;	621,5;	0,0;	0,0
526,2786865234375;	567,25;	0,0;	0,0
526,3519897460938;	569,25;	0,0;	0,0
526,4251098632812;	911,75;	0,0;	0,0
526,4984130859375;	1416,0;	0,0;	0,0
526,5715942382812;	1189,75;	0,0;	0,0
526,644775390625;	938,5;	0,0;	0,0
526,718017578125;	2275,0;	0,0;	0,0
526,7911376953125;	5565,25;	0,0;	0,0
526,8642578125;	4858,0;	0,0;	0,0
526,9374389648438;	1799,75;	0,0;	0,0
527,0105590820312;	576,75;	0,0;	0,0
527,0836791992188;	442,5;	0,0;	0,0
527,15673828125;	577,0;	0,0;	0,0
527,2298583984375;	495,0;	0,0;	0,0
527,3029174804688;	398,25;	0,0;	0,0
527,3760375976562;	399,75;	0,0;	0,0
527,4490356445312;	416,25;	0,0;	0,0
527,5220336914062;	383,5;	0,0;	0,0
527,5950927734375;	364,5;	0,0;	0,0
527,6680908203125;	339,0;	0,0;	0,0
527,7411499023438;	341,25;	0,0;	0,0
527,8140869140625;	397,5;	0,0;	0,0
527,8870849609375;	433,25;	0,0;	0,0
527,9600219726562;	582,75;	0,0;	0,0
528,032958984375;	690,5;	0,0;	0,0
528,1058959960938;	669,5;	0,0;	0,0
528,1788330078125;	862,25;	0,0;	0,0
528,251708984375;	855,5;	0,0;	0,0
528,3245849609375;	519,75;	0,0;	0,0
528,3974609375;	375,25;	0,0;	0,0
528,4703369140625;	371,25;	0,0;	0,0
528,543212890625;	352,0;	0,0;	0,0
528,6160278320312;	337,25;	0,0;	0,0
528,6888427734375;	373,25;	0,0;	0,0
528,7616577148438;	350,0;	0,0;	0,0
528,8344116210938;	356,0;	0,0;	0,0
528,9072265625;	375,0;	0,0;	0,0
528,97998046875;	338,0;	0,0;	0,0
529,0527954101562;	390,5;	0,0;	0,0
529,12548828125;	371,0;	0,0;	0,0
529,1982421875;	348,5;	0,0;	0,0
529,27099609375;	396,5;	0,0;	0,0
529,34375;	370,0;	0,0;	0,0
529,4163208007812;	346,75;	0,0;	0,0
529,4890747070312;	347,5;	0,0;	0,0
529,561767578125;	347,25;	0,0;	0,0
529,6343383789062;	350,75;	0,0;	0,0
529,70703125;	378,0;	0,0;	0,0
529,7796020507812;	346,25;	0,0;	0,0
529,8522338867188;	341,75;	0,0;	0,0
529,9249267578125;	381,5;	0,0;	0,0
529,9974365234375;	448,75;	0,0;	0,0
530,070068359375;	600,0;	0,0;	0,0
530,142578125;	562,0;	0,0;	0,0
530,2151489257812;	364,75;	0,0;	0,0
530,2876586914062;	329,75;	0,0;	0,0
530,3602294921875;	361,75;	0,0;	0,0
530,4326782226562;	357,5;	0,0;	0,0
530,5052490234375;	366,5;	0,0;	0,0
530,57763671875;	389,75;	0,0;	0,0
530,650146484375;	367,25;	0,0;	0,0
530,72265625;	371,75;	0,0;	0,0
530,7950439453125;	301,25;	0,0;	0,0
530,8674926757812;	348,75;	0,0;	0,0
530,93994140625;	375,75;	0,0;	0,0
531,0122680664062;	365,5;	0,0;	0,0
531,084716796875;	341,75;	0,0;	0,0
531,1571044921875;	370,5;	0,0;	0,0
531,2294311523438;	354,75;	0,0;	0,0
531,3018188476562;	356,25;	0,0;	0,0
531,3740844726562;	366,75;	0,0;	0,0
531,4464111328125;	409,75;	0,0;	0,0
531,518798828125;	424,25;	0,0;	0,0
531,591064453125;	403,25;	0,0;	0,0
531,6633911132812;	363,0;	0,0;	0,0
531,7356567382812;	358,25;	0,0;	0,0
531,807861328125;	369,75;	0,0;	0,0
531,880126953125;	344,0;	0,0;	0,0
531,9523315429688;	376,0;	0,0;	0,0
532,0245361328125;	397,5;	0,0;	0,0
532,0968017578125;	479,5;	0,0;	0,0
532,1689453125;	770,75;	0,0;	0,0
532,2411499023438;	1505,0;	0,0;	0,0
532,3133544921875;	1448,5;	0,0;	0,0
532,3854370117188;	700,25;	0,0;	0,0
532,4576416015625;	593,25;	0,0;	0,0
532,5297241210938;	1054,75;	0,0;	0,0
532,6018676757812;	2865,0;	0,0;	0,0
532,6739501953125;	4303,75;	0,0;	0,0
532,7459716796875;	2125,5;	0,0;	0,0
532,818115234375;	567,5;	0,0;	0,0
532,8901977539062;	422,25;	0,0;	0,0
532,9622192382812;	419,5;	0,0;	0,0
533,0342407226562;	411,75;	0,0;	0,0
533,1062622070312;	386,75;	0,0;	0,0
533,1782836914062;	407,25;	0,0;	0,0
533,2503051757812;	363,0;	0,0;	0,0
533,3222045898438;	341,75;	0,0;	0,0
533,3942260742188;	351,25;	0,0;	0,0
533,4661865234375;	363,75;	0,0;	0,0
533,5380859375;	371,5;	0,0;	0,0
533,6100463867188;	374,5;	0,0;	0,0
533,6819458007812;	420,25;	0,0;	0,0
533,7538452148438;	495,0;	0,0;	0,0
533,82568359375;	772,25;	0,0;	0,0
533,8976440429688;	907,75;	0,0;	0,0
533,9694213867188;	850,25;	0,0;	0,0
534,0413208007812;	549,5;	0,0;	0,0
534,1130981445312;	368,5;	0,0;	0,0
534,1849975585938;	391,5;	0,0;	0,0
534,2567749023438;	369,25;	0,0;	0,0
534,3284912109375;	363,5;	0,0;	0,0
534,4003295898438;	369,25;	0,0;	0,0
534,4721069335938;	370,25;	0,0;	0,0
534,5438842773438;	340,75;	0,0;	0,0
534,6156005859375;	382,5;	0,0;	0,0
534,6873779296875;	371,25;	0,0;	0,0
534,759033203125;	403,0;	0,0;	0,0
534,830810546875;	385,0;	0,0;	0,0
534,9024047851562;	339,75;	0,0;	0,0
534,97412109375;	359,75;	0,0;	0,0
535,0457763671875;	350,0;	0,0;	0,0
535,1173706054688;	380,5;	0,0;	0,0
535,1890869140625;	419,0;	0,0;	0,0
535,2607421875;	417,25;	0,0;	0,0
535,332275390625;	373,25;	0,0;	0,0
535,4038696289062;	369,0;	0,0;	0,0
535,4754638671875;	351,25;	0,0;	0,0
535,5469970703125;	364,5;	0,0;	0,0
535,6185913085938;	371,0;	0,0;	0,0
535,6901245117188;	357,5;	0,0;	0,0
535,7616577148438;	353,0;	0,0;	0,0
535,8331909179688;	402,0;	0,0;	0,0
535,9046630859375;	387,75;	0,0;	0,0
535,9761962890625;	401,0;	0,0;	0,0
536,047607421875;	402,75;	0,0;	0,0
536,1190185546875;	451,5;	0,0;	0,0
536,1905517578125;	513,0;	0,0;	0,0
536,2619018554688;	634,75;	0,0;	0,0
536,3333740234375;	775,0;	0,0;	0,0
536,4048461914062;	730,25;	0,0;	0,0
536,4761352539062;	655,25;	0,0;	0,0
536,5475463867188;	841,0;	0,0;	0,0
536,6189575195312;	913,75;	0,0;	0,0
536,6902465820312;	723,5;	0,0;	0,0
536,7615966796875;	792,0;	0,0;	0,0
536,8329467773438;	1167,5;	0,0;	0,0
536,9042358398438;	1551,0;	0,0;	0,0
536,9755859375;	2915,75;	0,0;	0,0
537,046875;	2478,75;	0,0;	0,0
537,1181030273438;	835,0;	0,0;	0,0
537,1893920898438;	440,75;	0,0;	0,0
537,2606201171875;	448,0;	0,0;	0,0
537,3319091796875;	399,25;	0,0;	0,0
537,403076171875;	375,75;	0,0;	0,0
537,4743041992188;	407,5;	0,0;	0,0
537,5454711914062;	399,75;	0,0;	0,0
537,6165771484375;	415,0;	0,0;	0,0
537,6878051757812;	407,5;	0,0;	0,0
537,7589721679688;	414,75;	0,0;	0,0
537,830078125;	449,75;	0,0;	0,0
537,9012451171875;	407,25;	0,0;	0,0
537,9723510742188;	449,5;	0,0;	0,0
538,0433959960938;	602,25;	0,0;	0,0
538,1145629882812;	949,75;	0,0;	0,0
538,1856079101562;	1346,25;	0,0;	0,0
538,2566528320312;	950,0;	0,0;	0,0
538,3276977539062;	530,75;	0,0;	0,0
538,398681640625;	419,5;	0,0;	0,0
538,4697265625;	416,25;	0,0;	0,0
538,5408325195312;	412,0;	0,0;	0,0
538,6117553710938;	403,5;	0,0;	0,0
538,6827392578125;	436,75;	0,0;	0,0
538,753662109375;	467,75;	0,0;	0,0
538,8246459960938;	442,0;	0,0;	0,0
538,8956298828125;	419,5;	0,0;	0,0
538,9664916992188;	431,75;	0,0;	0,0
539,0374145507812;	514,25;	0,0;	0,0
539,1083374023438;	602,25;	0,0;	0,0
539,1791381835938;	692,0;	0,0;	0,0
539,2500610351562;	568,75;	0,0;	0,0
539,3209228515625;	443,75;	0,0;	0,0
539,3917236328125;	508,0;	0,0;	0,0
539,4625854492188;	779,0;	0,0;	0,0
539,5333862304688;	1705,5;	0,0;	0,0
539,6041870117188;	1654,25;	0,0;	0,0
539,6749877929688;	800,25;	0,0;	0,0
539,7457275390625;	471,0;	0,0;	0,0
539,8165283203125;	499,5;	0,0;	0,0
539,8872680664062;	591,75;	0,0;	0,0
539,9580078125;	580,0;	0,0;	0,0
540,0286865234375;	522,5;	0,0;	0,0
540,0994873046875;	574,0;	0,0;	0,0
540,170166015625;	886,75;	0,0;	0,0
540,2408447265625;	1395,25;	0,0;	0,0
540,3114624023438;	1485,0;	0,0;	0,0
540,3821411132812;	1908,25;	0,0;	0,0
540,4528198242188;	2197,5;	0,0;	0,0
540,5233764648438;	1035,75;	0,0;	0,0
540,5940551757812;	475,5;	0,0;	0,0
540,6646728515625;	437,0;	0,0;	0,0
540,7351684570312;	456,0;	0,0;	0,0
540,8057861328125;	571,25;	0,0;	0,0
540,8763427734375;	736,25;	0,0;	0,0
540,9468383789062;	798,75;	0,0;	0,0
541,0174560546875;	674,0;	0,0;	0,0
541,087890625;	487,5;	0,0;	0,0
541,158447265625;	524,5;	0,0;	0,0
541,2289428710938;	632,5;	0,0;	0,0
541,2994384765625;	879,25;	0,0;	0,0
541,369873046875;	1145,0;	0,0;	0,0
541,4403686523438;	812,25;	0,0;	0,0
541,5107421875;	506,75;	0,0;	0,0
541,5811767578125;	443,75;	0,0;	0,0
541,6515502929688;	438,0;	0,0;	0,0
541,7219848632812;	436,0;	0,0;	0,0
541,7923583984375;	417,0;	0,0;	0,0
541,8627319335938;	411,75;	0,0;	0,0
541,93310546875;	439,25;	0,0;	0,0
542,0034790039062;	465,0;	0,0;	0,0
542,07373046875;	604,0;	0,0;	0,0
542,1441040039062;	864,0;	0,0;	0,0
542,21435546875;	1223,25;	0,0;	0,0
542,28466796875;	1303,0;	0,0;	0,0
542,3549194335938;	769,0;	0,0;	0,0
542,4251708984375;	495,5;	0,0;	0,0
542,4954833984375;	458,0;	0,0;	0,0
542,5657348632812;	466,5;	0,0;	0,0
542,6358642578125;	526,0;	0,0;	0,0
542,7061157226562;	749,5;	0,0;	0,0
542,7763671875;	1727,25;	0,0;	0,0
542,846435546875;	2175,0;	0,0;	0,0
542,9166870117188;	1047,25;	0,0;	0,0
542,98681640625;	429,0;	0,0;	0,0
543,0569458007812;	452,25;	0,0;	0,0
543,1271362304688;	492,0;	0,0;	0,0
543,1971435546875;	669,5;	0,0;	0,0
543,267333984375;	1199,0;	0,0;	0,0
543,33740234375;	1337,0;	0,0;	0,0
543,407470703125;	651,0;	0,0;	0,0
543,4774780273438;	438,5;	0,0;	0,0
543,547607421875;	411,75;	0,0;	0,0
543,6175537109375;	397,0;	0,0;	0,0
543,6876220703125;	375,5;	0,0;	0,0
543,7576293945312;	386,5;	0,0;	0,0
543,8275756835938;	380,75;	0,0;	0,0
543,8975830078125;	383,75;	0,0;	0,0
543,9674682617188;	405,0;	0,0;	0,0
544,0374755859375;	389,75;	0,0;	0,0
544,107421875;	400,25;	0,0;	0,0
544,1773071289062;	433,25;	0,0;	0,0
544,2472534179688;	498,25;	0,0;	0,0
544,317138671875;	683,0;	0,0;	0,0
544,386962890625;	783,75;	0,0;	0,0
544,4568481445312;	1099,0;	0,0;	0,0
544,5266723632812;	2075,5;	0,0;	0,0
544,5965576171875;	1694,5;	0,0;	0,0
544,6663818359375;	669,5;	0,0;	0,0
544,7361450195312;	396,25;	0,0;	0,0
544,8060302734375;	374,5;	0,0;	0,0
544,8757934570312;	391,75;	0,0;	0,0
544,945556640625;	412,25;	0,0;	0,0
545,0153198242188;	410,25;	0,0;	0,0
545,0850830078125;	401,0;	0,0;	0,0
545,15478515625;	469,75;	0,0;	0,0
545,2244873046875;	535,75;	0,0;	0,0
545,294189453125;	766,5;	0,0;	0,0
545,3639526367188;	1472,0;	0,0;	0,0
545,43359375;	1747,5;	0,0;	0,0
545,5032348632812;	926,25;	0,0;	0,0
545,5729370117188;	454,75;	0,0;	0,0
545,6424560546875;	428,25;	0,0;	0,0
545,712158203125;	407,5;	0,0;	0,0
545,78173828125;	385,25;	0,0;	0,0
545,851318359375;	420,5;	0,0;	0,0
545,9208984375;	455,25;	0,0;	0,0
545,9905395507812;	444,5;	0,0;	0,0
546,0599975585938;	525,25;	0,0;	0,0
546,1295776367188;	694,5;	0,0;	0,0
546,1990966796875;	695,25;	0,0;	0,0
546,2686157226562;	508,0;	0,0;	0,0
546,338134765625;	418,75;	0,0;	0,0
546,4075317382812;	424,5;	0,0;	0,0
546,4771118164062;	467,75;	0,0;	0,0
546,5465698242188;	470,0;	0,0;	0,0
546,615966796875;	426,0;	0,0;	0,0
546,6853637695312;	404,25;	0,0;	0,0
546,7548217773438;	410,25;	0,0;	0,0
546,82421875;	358,25;	0,0;	0,0
546,8936157226562;	397,0;	0,0;	0,0
546,9630126953125;	397,5;	0,0;	0,0
547,0323486328125;	394,0;	0,0;	0,0
547,1016845703125;	411,0;	0,0;	0,0
547,1710205078125;	463,0;	0,0;	0,0
547,2403564453125;	495,0;	0,0;	0,0
547,3096923828125;	457,25;	0,0;	0,0
547,37890625;	468,0;	0,0;	0,0
547,4482421875;	585,0;	0,0;	0,0
547,5175170898438;	664,0;	0,0;	0,0
547,586669921875;	544,0;	0,0;	0,0
547,6559448242188;	451,0;	0,0;	0,0
547,7252197265625;	394,0;	0,0;	0,0
547,7943725585938;	417,5;	0,0;	0,0
547,8636474609375;	400,5;	0,0;	0,0
547,9327392578125;	456,0;	0,0;	0,0
548,001953125;	441,0;	0,0;	0,0
548,0711059570312;	463,0;	0,0;	0,0
548,1401977539062;	398,25;	0,0;	0,0
548,2093505859375;	402,25;	0,0;	0,0
548,2784423828125;	385,5;	0,0;	0,0
548,3475341796875;	383,5;	0,0;	0,0
548,4166259765625;	421,5;	0,0;	0,0
548,4857177734375;	398,0;	0,0;	0,0
548,5547485351562;	457,5;	0,0;	0,0
548,6238403320312;	489,75;	0,0;	0,0
548,6928100585938;	454,25;	0,0;	0,0
548,7619018554688;	411,75;	0,0;	0,0
548,8309326171875;	457,5;	0,0;	0,0
548,8998413085938;	401,75;	0,0;	0,0
548,9688720703125;	375,75;	0,0;	0,0
549,0377807617188;	427,5;	0,0;	0,0
549,1067504882812;	419,75;	0,0;	0,0
549,1756591796875;	402,75;	0,0;	0,0
549,2445678710938;	414,75;	0,0;	0,0
549,3135375976562;	410,25;	0,0;	0,0
549,3824462890625;	404,25;	0,0;	0,0
549,4512939453125;	425,75;	0,0;	0,0
549,5201416015625;	481,25;	0,0;	0,0
549,5890502929688;	623,25;	0,0;	0,0
549,6578369140625;	605,5;	0,0;	0,0
549,7266845703125;	461,5;	0,0;	0,0
549,7954711914062;	431,25;	0,0;	0,0
549,8642578125;	435,0;	0,0;	0,0
549,93310546875;	484,0;	0,0;	0,0
550,0017700195312;	616,25;	0,0;	0,0
550,070556640625;	515,75;	0,0;	0,0
550,1393432617188;	439,5;	0,0;	0,0
550,2080078125;	425,5;	0,0;	0,0
550,2767944335938;	449,5;	0,0;	0,0
550,345458984375;	451,5;	0,0;	0,0
550,4141235351562;	500,25;	0,0;	0,0
550,4828491210938;	652,75;	0,0;	0,0
550,5513916015625;	774,75;	0,0;	0,0
550,6201171875;	528,75;	0,0;	0,0
550,688720703125;	441,75;	0,0;	0,0
550,75732421875;	421,5;	0,0;	0,0
550,8259887695312;	419,25;	0,0;	0,0
550,89453125;	424,25;	0,0;	0,0
550,9630737304688;	449,75;	0,0;	0,0
551,0316772460938;	473,75;	0,0;	0,0
551,1002197265625;	475,75;	0,0;	0,0
551,1687622070312;	438,5;	0,0;	0,0
551,2373046875;	440,0;	0,0;	0,0
551,3057250976562;	455,75;	0,0;	0,0
551,374267578125;	447,25;	0,0;	0,0
551,4427490234375;	425,25;	0,0;	0,0
551,5111694335938;	423,75;	0,0;	0,0
551,5796508789062;	431,0;	0,0;	0,0
551,6480102539062;	441,25;	0,0;	0,0
551,7164916992188;	412,0;	0,0;	0,0
551,7849731445312;	441,5;	0,0;	0,0
551,8533325195312;	431,75;	0,0;	0,0
551,9216918945312;	468,0;	0,0;	0,0
551,9901123046875;	434,5;	0,0;	0,0
552,0584106445312;	419,5;	0,0;	0,0
552,1267700195312;	428,25;	0,0;	0,0
552,195068359375;	440,75;	0,0;	0,0
552,2633666992188;	429,5;	0,0;	0,0
552,3316650390625;	487,25;	0,0;	0,0
552,39990234375;	477,25;	0,0;	0,0
552,46826171875;	445,5;	0,0;	0,0
552,5364990234375;	466,25;	0,0;	0,0
552,6046752929688;	395,25;	0,0;	0,0
552,6729736328125;	436,5;	0,0;	0,0
552,7412109375;	469,0;	0,0;	0,0
552,809326171875;	449,75;	0,0;	0,0
552,8775634765625;	439,0;	0,0;	0,0
552,9457397460938;	436,5;	0,0;	0,0
553,0138549804688;	441,75;	0,0;	0,0
553,08203125;	470,5;	0,0;	0,0
553,150146484375;	496,75;	0,0;	0,0
553,2182006835938;	485,0;	0,0;	0,0
553,286376953125;	461,25;	0,0;	0,0
553,3544311523438;	635,25;	0,0;	0,0
553,4225463867188;	690,75;	0,0;	0,0
553,4906005859375;	516,75;	0,0;	0,0
553,55859375;	463,5;	0,0;	0,0
553,626708984375;	468,5;	0,0;	0,0
553,6947021484375;	463,5;	0,0;	0,0
553,7626953125;	446,75;	0,0;	0,0
553,8306884765625;	465,75;	0,0;	0,0
553,8986206054688;	459,25;	0,0;	0,0
553,9666137695312;	485,75;	0,0;	0,0
554,0346069335938;	448,75;	0,0;	0,0
554,1024780273438;	515,75;	0,0;	0,0
554,1704711914062;	520,75;	0,0;	0,0
554,2384033203125;	559,5;	0,0;	0,0
554,3062133789062;	506,25;	0,0;	0,0
554,3740844726562;	496,25;	0,0;	0,0
554,4419555664062;	480,25;	0,0;	0,0
554,509765625;	480,75;	0,0;	0,0
554,57763671875;	484,25;	0,0;	0,0
554,6454467773438;	496,5;	0,0;	0,0
554,7133178710938;	475,0;	0,0;	0,0
554,7810668945312;	450,0;	0,0;	0,0
554,8488159179688;	459,25;	0,0;	0,0
554,9166259765625;	445,0;	0,0;	0,0
554,9843139648438;	473,25;	0,0;	0,0
555,0521240234375;	443,0;	0,0;	0,0
555,119873046875;	487,5;	0,0;	0,0
555,1875;	447,5;	0,0;	0,0
555,2552490234375;	515,5;	0,0;	0,0
555,3229370117188;	566,5;	0,0;	0,0
555,390625;	498,0;	0,0;	0,0
555,458251953125;	486,75;	0,0;	0,0
555,52587890625;	457,75;	0,0;	0,0
555,593505859375;	458,25;	0,0;	0,0
555,6611328125;	441,75;	0,0;	0,0
555,7286987304688;	476,5;	0,0;	0,0
555,7963256835938;	490,25;	0,0;	0,0
555,8638916015625;	463,25;	0,0;	0,0
555,931396484375;	501,0;	0,0;	0,0
555,9989624023438;	488,25;	0,0;	0,0
556,0665283203125;	493,75;	0,0;	0,0
556,1339721679688;	475,0;	0,0;	0,0
556,2014770507812;	558,0;	0,0;	0,0
556,26904296875;	517,5;	0,0;	0,0
556,3364868164062;	488,0;	0,0;	0,0
556,4039306640625;	572,75;	0,0;	0,0
556,4713134765625;	539,5;	0,0;	0,0
556,538818359375;	516,5;	0,0;	0,0
556,6062622070312;	498,25;	0,0;	0,0
556,673583984375;	533,0;	0,0;	0,0
556,7410278320312;	602,25;	0,0;	0,0
556,8084716796875;	923,75;	0,0;	0,0
556,875732421875;	769,25;	0,0;	0,0
556,943115234375;	550,5;	0,0;	0,0
557,010498046875;	560,5;	0,0;	0,0
557,0776977539062;	839,5;	0,0;	0,0
557,1450805664062;	1273,75;	0,0;	0,0
557,2123413085938;	1000,5;	0,0;	0,0
557,2796020507812;	556,75;	0,0;	0,0
557,346923828125;	480,25;	0,0;	0,0
557,4141235351562;	594,25;	0,0;	0,0
557,4813232421875;	628,75;	0,0;	0,0
557,5485229492188;	580,25;	0,0;	0,0
557,6157836914062;	488,75;	0,0;	0,0
557,6829833984375;	429,5;	0,0;	0,0
557,7501831054688;	428,5;	0,0;	0,0
557,8173217773438;	410,75;	0,0;	0,0
557,8844604492188;	442,0;	0,0;	0,0
557,9515991210938;	428,75;	0,0;	0,0
558,0187377929688;	477,25;	0,0;	0,0
558,0858764648438;	504,25;	0,0;	0,0
558,1528930664062;	459,25;	0,0;	0,0
558,219970703125;	462,0;	0,0;	0,0
558,2869873046875;	471,25;	0,0;	0,0
558,3540649414062;	575,5;	0,0;	0,0
558,421142578125;	713,0;	0,0;	0,0
558,4881591796875;	1345,5;	0,0;	0,0
558,55517578125;	1737,0;	0,0;	0,0
558,6221923828125;	1124,5;	0,0;	0,0
558,6891479492188;	807,75;	0,0;	0,0
558,7561645507812;	855,5;	0,0;	0,0
558,8230590820312;	623,25;	0,0;	0,0
558,8900146484375;	485,0;	0,0;	0,0
558,9569702148438;	461,75;	0,0;	0,0
559,0238037109375;	444,75;	0,0;	0,0
559,0906982421875;	504,25;	0,0;	0,0
559,1576538085938;	446,5;	0,0;	0,0
559,2244262695312;	552,0;	0,0;	0,0
559,2913208007812;	703,75;	0,0;	0,0
559,358154296875;	622,25;	0,0;	0,0
559,4249877929688;	499,5;	0,0;	0,0
559,4918212890625;	424,25;	0,0;	0,0
559,5586547851562;	501,5;	0,0;	0,0
559,6253662109375;	569,25;	0,0;	0,0
559,692138671875;	642,5;	0,0;	0,0
559,7589111328125;	620,75;	0,0;	0,0
559,8256225585938;	506,0;	0,0;	0,0
559,8923950195312;	455,75;	0,0;	0,0
559,9590454101562;	511,0;	0,0;	0,0
560,0257568359375;	532,25;	0,0;	0,0
560,0924682617188;	645,25;	0,0;	0,0
560,1591186523438;	721,5;	0,0;	0,0
560,225830078125;	598,25;	0,0;	0,0
560,29248046875;	435,0;	0,0;	0,0
560,3590698242188;	418,0;	0,0;	0,0
560,4256591796875;	426,5;	0,0;	0,0
560,4921875;	433,25;	0,0;	0,0
560,5587768554688;	453,5;	0,0;	0,0
560,6254272460938;	441,5;	0,0;	0,0
560,6919555664062;	422,0;	0,0;	0,0
560,7584838867188;	450,25;	0,0;	0,0
560,824951171875;	461,0;	0,0;	0,0
560,8914794921875;	457,25;	0,0;	0,0
560,9580688476562;	399,25;	0,0;	0,0
561,0245361328125;	436,0;	0,0;	0,0
561,0909423828125;	425,0;	0,0;	0,0
561,157470703125;	461,0;	0,0;	0,0
561,2238159179688;	540,5;	0,0;	0,0
561,2903442382812;	745,5;	0,0;	0,0
561,3567504882812;	1400,5;	0,0;	0,0
561,4231567382812;	2393,0;	0,0;	0,0
561,489501953125;	1605,5;	0,0;	0,0
561,5558471679688;	779,25;	0,0;	0,0
561,6222534179688;	502,25;	0,0;	0,0
561,6885986328125;	475,75;	0,0;	0,0
561,7548828125;	505,5;	0,0;	0,0
561,8211669921875;	485,25;	0,0;	0,0
561,8875122070312;	497,0;	0,0;	0,0
561,9537963867188;	476,5;	0,0;	0,0
562,0200805664062;	452,25;	0,0;	0,0
562,0863647460938;	487,75;	0,0;	0,0
562,152587890625;	490,5;	0,0;	0,0
562,2188110351562;	539,0;	0,0;	0,0
562,2849731445312;	719,25;	0,0;	0,0
562,3511962890625;	702,5;	0,0;	0,0
562,4174194335938;	565,75;	0,0;	0,0
562,4835205078125;	492,75;	0,0;	0,0
562,5496826171875;	459,5;	0,0;	0,0
562,6159057617188;	468,5;	0,0;	0,0
562,6820068359375;	457,25;	0,0;	0,0
562,748046875;	476,25;	0,0;	0,0
562,814208984375;	438,25;	0,0;	0,0
562,8803100585938;	490,25;	0,0;	0,0
562,9463500976562;	454,75;	0,0;	0,0
563,0123901367188;	487,0;	0,0;	0,0
563,0784301757812;	485,5;	0,0;	0,0
563,14453125;	487,5;	0,0;	0,0
563,21044921875;	472,0;	0,0;	0,0
563,2764892578125;	502,75;	0,0;	0,0
563,3424682617188;	483,0;	0,0;	0,0
563,408447265625;	502,75;	0,0;	0,0
563,4744262695312;	503,75;	0,0;	0,0
563,5404052734375;	509,0;	0,0;	0,0
563,6062622070312;	517,75;	0,0;	0,0
563,6722412109375;	579,5;	0,0;	0,0
563,7380981445312;	519,25;	0,0;	0,0
563,8040161132812;	496,75;	0,0;	0,0
563,869873046875;	466,0;	0,0;	0,0
563,9356689453125;	508,25;	0,0;	0,0
564,0015258789062;	508,75;	0,0;	0,0
564,0673217773438;	502,5;	0,0;	0,0
564,1331787109375;	478,25;	0,0;	0,0
564,1990356445312;	479,0;	0,0;	0,0
564,2647705078125;	445,0;	0,0;	0,0
564,3305053710938;	462,75;	0,0;	0,0
564,3963012695312;	442,25;	0,0;	0,0
564,4620361328125;	471,5;	0,0;	0,0
564,5277709960938;	494,0;	0,0;	0,0
564,593505859375;	473,5;	0,0;	0,0
564,6591796875;	502,75;	0,0;	0,0
564,7249145507812;	479,5;	0,0;	0,0
564,7904663085938;	506,25;	0,0;	0,0
564,856201171875;	503,0;	0,0;	0,0
564,9218139648438;	506,75;	0,0;	0,0
564,9874877929688;	485,75;	0,0;	0,0
565,0530395507812;	500,75;	0,0;	0,0
565,1187133789062;	491,5;	0,0;	0,0
565,1842651367188;	530,5;	0,0;	0,0
565,2498168945312;	539,75;	0,0;	0,0
565,3153686523438;	493,25;	0,0;	0,0
565,3809204101562;	549,75;	0,0;	0,0
565,4464721679688;	552,75;	0,0;	0,0
565,511962890625;	533,25;	0,0;	0,0
565,5774536132812;	533,75;	0,0;	0,0
565,6429443359375;	592,0;	0,0;	0,0
565,7083740234375;	757,25;	0,0;	0,0
565,7738647460938;	738,25;	0,0;	0,0
565,83935546875;	591,5;	0,0;	0,0
565,9047241210938;	501,25;	0,0;	0,0
565,9701538085938;	497,0;	0,0;	0,0
566,0355834960938;	552,0;	0,0;	0,0
566,1009521484375;	638,5;	0,0;	0,0
566,1663208007812;	596,25;	0,0;	0,0
566,2316284179688;	511,0;	0,0;	0,0
566,2969970703125;	477,0;	0,0;	0,0
566,3623657226562;	454,5;	0,0;	0,0
566,4276123046875;	480,25;	0,0;	0,0
566,4929809570312;	492,0;	0,0;	0,0
566,5582275390625;	467,5;	0,0;	0,0
566,6234741210938;	497,5;	0,0;	0,0
566,688720703125;	499,75;	0,0;	0,0
566,7540283203125;	503,0;	0,0;	0,0
566,8192138671875;	503,5;	0,0;	0,0
566,8843994140625;	520,75;	0,0;	0,0
566,9495849609375;	499,75;	0,0;	0,0
567,0147705078125;	509,75;	0,0;	0,0
567,0799560546875;	499,0;	0,0;	0,0
567,1451416015625;	491,75;	0,0;	0,0
567,2102661132812;	481,25;	0,0;	0,0
567,2753295898438;	477,25;	0,0;	0,0
567,3405151367188;	507,75;	0,0;	0,0
567,4055786132812;	485,5;	0,0;	0,0
567,4706420898438;	500,25;	0,0;	0,0
567,5357055664062;	499,0;	0,0;	0,0
567,600830078125;	524,5;	0,0;	0,0
567,6658325195312;	454,75;	0,0;	0,0
567,7308959960938;	530,25;	0,0;	0,0
567,7958374023438;	567,0;	0,0;	0,0
567,86083984375;	507,5;	0,0;	0,0
567,9258422851562;	564,75;	0,0;	0,0
567,9907836914062;	590,75;	0,0;	0,0
568,0557250976562;	693,0;	0,0;	0,0
568,1207275390625;	816,0;	0,0;	0,0
568,185546875;	836,25;	0,0;	0,0
568,25048828125;	753,75;	0,0;	0,0
568,3153686523438;	623,75;	0,0;	0,0
568,3802490234375;	642,0;	0,0;	0,0
568,4451293945312;	673,5;	0,0;	0,0
568,5100708007812;	670,0;	0,0;	0,0
568,5748291015625;	803,75;	0,0;	0,0
568,6396484375;	972,25;	0,0;	0,0
568,7044677734375;	1195,5;	0,0;	0,0
568,769287109375;	1138,75;	0,0;	0,0
568,8340454101562;	851,0;	0,0;	0,0
568,8987426757812;	731,75;	0,0;	0,0
568,9635009765625;	646,0;	0,0;	0,0
569,0282592773438;	614,75;	0,0;	0,0
569,0929565429688;	598,25;	0,0;	0,0
569,15771484375;	532,5;	0,0;	0,0
569,222412109375;	524,25;	0,0;	0,0
569,2870483398438;	512,5;	0,0;	0,0
569,3517456054688;	508,25;	0,0;	0,0
569,4163818359375;	487,0;	0,0;	0,0
569,4810180664062;	489,25;	0,0;	0,0
569,5455932617188;	476,0;	0,0;	0,0
569,6102294921875;	511,25;	0,0;	0,0
569,6748657226562;	462,0;	0,0;	0,0
569,7393188476562;	493,0;	0,0;	0,0
569,803955078125;	477,5;	0,0;	0,0
569,8685302734375;	512,5;	0,0;	0,0
569,9330444335938;	520,0;	0,0;	0,0
569,9974975585938;	573,0;	0,0;	0,0
570,0620727539062;	534,0;	0,0;	0,0
570,1265258789062;	477,25;	0,0;	0,0
570,1910400390625;	498,75;	0,0;	0,0
570,2554931640625;	482,5;	0,0;	0,0
570,3198852539062;	502,5;	0,0;	0,0
570,3843383789062;	514,0;	0,0;	0,0
570,44873046875;	567,0;	0,0;	0,0
570,51318359375;	565,25;	0,0;	0,0
570,5775756835938;	527,25;	0,0;	0,0
570,6419067382812;	518,25;	0,0;	0,0
570,706298828125;	557,0;	0,0;	0,0
570,7706298828125;	613,0;	0,0;	0,0
570,8349609375;	589,5;	0,0;	0,0
570,8992919921875;	573,0;	0,0;	0,0
570,963623046875;	512,5;	0,0;	0,0
571,02783203125;	503,5;	0,0;	0,0
571,0921020507812;	488,5;	0,0;	0,0
571,1563110351562;	478,75;	0,0;	0,0
571,2206420898438;	489,0;	0,0;	0,0
571,2848510742188;	451,25;	0,0;	0,0
571,3489990234375;	480,75;	0,0;	0,0
571,4132080078125;	475,25;	0,0;	0,0
571,4774169921875;	466,25;	0,0;	0,0
571,5415649414062;	493,5;	0,0;	0,0
571,6057739257812;	510,0;	0,0;	0,0
571,6698608398438;	494,25;	0,0;	0,0
571,7340087890625;	531,0;	0,0;	0,0
571,7981567382812;	517,0;	0,0;	0,0
571,8621826171875;	472,25;	0,0;	0,0
571,92626953125;	477,0;	0,0;	0,0
571,9904174804688;	474,5;	0,0;	0,0
572,0543823242188;	448,5;	0,0;	0,0
572,1184692382812;	471,5;	0,0;	0,0
572,1824951171875;	490,5;	0,0;	0,0
572,2464599609375;	421,0;	0,0;	0,0
572,3104858398438;	463,75;	0,0;	0,0
572,3744506835938;	447,25;	0,0;	0,0
572,4384155273438;	454,75;	0,0;	0,0
572,5023803710938;	448,25;	0,0;	0,0
572,5662841796875;	428,5;	0,0;	0,0
572,6301879882812;	438,25;	0,0;	0,0
572,6941528320312;	453,0;	0,0;	0,0
572,7579956054688;	449,75;	0,0;	0,0
572,8218383789062;	478,5;	0,0;	0,0
572,8856811523438;	435,75;	0,0;	0,0
572,9495849609375;	453,5;	0,0;	0,0
573,013427734375;	485,5;	0,0;	0,0
573,0772705078125;	475,75;	0,0;	0,0
573,1410522460938;	479,25;	0,0;	0,0
573,204833984375;	464,75;	0,0;	0,0
573,2686157226562;	465,75;	0,0;	0,0
573,3323364257812;	422,75;	0,0;	0,0
573,3961181640625;	394,25;	0,0;	0,0
573,4598388671875;	445,0;	0,0;	0,0
573,5235595703125;	442,25;	0,0;	0,0
573,5872192382812;	430,75;	0,0;	0,0
573,6509399414062;	461,25;	0,0;	0,0
573,714599609375;	446,5;	0,0;	0,0
573,7781982421875;	476,0;	0,0;	0,0
573,8418579101562;	468,0;	0,0;	0,0
573,905517578125;	449,25;	0,0;	0,0
573,9691162109375;	470,0;	0,0;	0,0
574,0327758789062;	481,25;	0,0;	0,0
574,0963745117188;	461,5;	0,0;	0,0
574,1598510742188;	420,5;	0,0;	0,0
574,2234497070312;	458,0;	0,0;	0,0
574,2869873046875;	434,0;	0,0;	0,0
574,3504638671875;	425,5;	0,0;	0,0
574,4140014648438;	418,75;	0,0;	0,0
574,4775390625;	445,75;	0,0;	0,0
574,5409545898438;	457,0;	0,0;	0,0
574,6044921875;	497,5;	0,0;	0,0
574,6679077148438;	471,75;	0,0;	0,0
574,7313232421875;	444,25;	0,0;	0,0
574,7947998046875;	447,25;	0,0;	0,0
574,858154296875;	426,0;	0,0;	0,0
574,9215698242188;	498,25;	0,0;	0,0
574,98486328125;	494,25;	0,0;	0,0
575,04833984375;	465,5;	0,0;	0,0
575,1116943359375;	542,0;	0,0;	0,0
575,1749877929688;	568,0;	0,0;	0,0
575,2383422851562;	496,5;	0,0;	0,0
575,3016357421875;	488,0;	0,0;	0,0
575,3648681640625;	486,75;	0,0;	0,0
575,42822265625;	417,5;	0,0;	0,0
575,491455078125;	445,0;	0,0;	0,0
575,5546264648438;	432,25;	0,0;	0,0
575,617919921875;	463,5;	0,0;	0,0
575,6810913085938;	430,25;	0,0;	0,0
575,7442626953125;	459,75;	0,0;	0,0
575,8074951171875;	454,0;	0,0;	0,0
575,8706665039062;	464,0;	0,0;	0,0
575,933837890625;	453,25;	0,0;	0,0
575,9969482421875;	445,5;	0,0;	0,0
576,06005859375;	478,75;	0,0;	0,0
576,1232299804688;	605,5;	0,0;	0,0
576,186279296875;	649,0;	0,0;	0,0
576,2493896484375;	529,0;	0,0;	0,0
576,3125;	454,75;	0,0;	0,0
576,37548828125;	467,75;	0,0;	0,0
576,4385375976562;	456,25;	0,0;	0,0
576,5015869140625;	446,5;	0,0;	0,0
576,5645751953125;	449,5;	0,0;	0,0
576,6275634765625;	435,75;	0,0;	0,0
576,6904907226562;	447,75;	0,0;	0,0
576,7534790039062;	451,0;	0,0;	0,0
576,8164672851562;	425,75;	0,0;	0,0
576,87939453125;	436,75;	0,0;	0,0
576,9423217773438;	435,25;	0,0;	0,0
577,0052490234375;	438,75;	0,0;	0,0
577,068115234375;	438,5;	0,0;	0,0
577,1309814453125;	483,25;	0,0;	0,0
577,1939086914062;	466,25;	0,0;	0,0
577,2567138671875;	462,5;	0,0;	0,0
577,3195190429688;	469,25;	0,0;	0,0
577,38232421875;	442,25;	0,0;	0,0
577,4451293945312;	469,0;	0,0;	0,0
577,5079956054688;	466,0;	0,0;	0,0
577,5706787109375;	450,25;	0,0;	0,0
577,6334838867188;	423,0;	0,0;	0,0
577,6962890625;	448,5;	0,0;	0,0
577,7589721679688;	459,0;	0,0;	0,0
577,8216552734375;	432,5;	0,0;	0,0
577,8843994140625;	484,5;	0,0;	0,0
577,947021484375;	450,5;	0,0;	0,0
578,009765625;	477,25;	0,0;	0,0
578,0723876953125;	509,5;	0,0;	0,0
578,135009765625;	471,25;	0,0;	0,0
578,1976928710938;	459,75;	0,0;	0,0
578,2601928710938;	466,75;	0,0;	0,0
578,3228149414062;	418,5;	0,0;	0,0
578,3854370117188;	475,75;	0,0;	0,0
578,447998046875;	436,5;	0,0;	0,0
578,5105590820312;	446,75;	0,0;	0,0
578,5731201171875;	447,25;	0,0;	0,0
578,6356201171875;	450,75;	0,0;	0,0
578,6981811523438;	481,75;	0,0;	0,0
578,7605590820312;	470,75;	0,0;	0,0
578,8231201171875;	537,25;	0,0;	0,0
578,8855590820312;	549,5;	0,0;	0,0
578,9479370117188;	526,75;	0,0;	0,0
579,0104370117188;	531,75;	0,0;	0,0
579,0728149414062;	487,25;	0,0;	0,0
579,1351928710938;	464,5;	0,0;	0,0
579,1976318359375;	453,25;	0,0;	0,0
579,260009765625;	473,75;	0,0;	0,0
579,3223266601562;	463,25;	0,0;	0,0
579,3847045898438;	460,0;	0,0;	0,0
579,447021484375;	468,75;	0,0;	0,0
579,5093383789062;	496,0;	0,0;	0,0
579,5716552734375;	473,25;	0,0;	0,0
579,6339111328125;	485,5;	0,0;	0,0
579,6962280273438;	482,0;	0,0;	0,0
579,7583618164062;	498,75;	0,0;	0,0
579,8206787109375;	454,5;	0,0;	0,0
579,8829345703125;	466,5;	0,0;	0,0
579,9451293945312;	485,25;	0,0;	0,0
580,0072631835938;	491,5;	0,0;	0,0
580,0695190429688;	508,75;	0,0;	0,0
580,131591796875;	485,25;	0,0;	0,0
580,1937866210938;	490,25;	0,0;	0,0
580,2559204101562;	468,5;	0,0;	0,0
580,3180541992188;	480,75;	0,0;	0,0
580,3801879882812;	503,25;	0,0;	0,0
580,4421997070312;	491,0;	0,0;	0,0
580,5043334960938;	486,5;	0,0;	0,0
580,56640625;	489,25;	0,0;	0,0
580,62841796875;	514,25;	0,0;	0,0
580,6904907226562;	506,0;	0,0;	0,0
580,7525024414062;	524,5;	0,0;	0,0
580,814453125;	495,75;	0,0;	0,0
580,87646484375;	499,5;	0,0;	0,0
580,9384765625;	462,5;	0,0;	0,0
581,0003662109375;	491,5;	0,0;	0,0
581,0623779296875;	509,75;	0,0;	0,0
581,124267578125;	470,25;	0,0;	0,0
581,1861572265625;	491,75;	0,0;	0,0
581,2481079101562;	495,25;	0,0;	0,0
581,3099365234375;	439,25;	0,0;	0,0
581,371826171875;	489,75;	0,0;	0,0
581,4336547851562;	474,5;	0,0;	0,0
581,4954833984375;	529,75;	0,0;	0,0
581,557373046875;	481,0;	0,0;	0,0
581,619140625;	468,5;	0,0;	0,0
581,680908203125;	475,25;	0,0;	0,0
581,7427368164062;	471,75;	0,0;	0,0
581,804443359375;	490,25;	0,0;	0,0
581,8662109375;	501,5;	0,0;	0,0
581,9279174804688;	503,75;	0,0;	0,0
581,9896850585938;	505,5;	0,0;	0,0
582,0513916015625;	509,25;	0,0;	0,0
582,113037109375;	515,0;	0,0;	0,0
582,1747436523438;	495,25;	0,0;	0,0
582,2363891601562;	483,25;	0,0;	0,0
582,2979736328125;	473,75;	0,0;	0,0
582,359619140625;	488,5;	0,0;	0,0
582,4212646484375;	495,5;	0,0;	0,0
582,4828491210938;	511,0;	0,0;	0,0
582,5444946289062;	522,5;	0,0;	0,0
582,6060180664062;	494,25;	0,0;	0,0
582,6675415039062;	485,75;	0,0;	0,0
582,7290649414062;	515,75;	0,0;	0,0
582,7905883789062;	486,0;	0,0;	0,0
582,8521118164062;	513,25;	0,0;	0,0
582,9136352539062;	518,0;	0,0;	0,0
582,9750366210938;	522,75;	0,0;	0,0
583,0365600585938;	517,25;	0,0;	0,0
583,0980224609375;	508,0;	0,0;	0,0
583,159423828125;	542,0;	0,0;	0,0
583,2208862304688;	548,0;	0,0;	0,0
583,2822875976562;	510,75;	0,0;	0,0
583,3436279296875;	507,0;	0,0;	0,0
583,405029296875;	517,0;	0,0;	0,0
583,46630859375;	512,0;	0,0;	0,0
583,5277099609375;	504,0;	0,0;	0,0
583,5890502929688;	509,75;	0,0;	0,0
583,6503295898438;	532,0;	0,0;	0,0
583,711669921875;	526,0;	0,0;	0,0
583,77294921875;	505,0;	0,0;	0,0
583,8341674804688;	461,0;	0,0;	0,0
583,8955078125;	492,75;	0,0;	0,0
583,9567260742188;	485,0;	0,0;	0,0
584,0179443359375;	529,0;	0,0;	0,0
584,0791015625;	504,5;	0,0;	0,0
584,1403198242188;	507,5;	0,0;	0,0
584,2014770507812;	494,25;	0,0;	0,0
584,2626342773438;	485,0;	0,0;	0,0
584,3237915039062;	499,0;	0,0;	0,0
584,3849487304688;	508,75;	0,0;	0,0
584,4459838867188;	525,75;	0,0;	0,0
584,5071411132812;	520,0;	0,0;	0,0
584,5682373046875;	520,5;	0,0;	0,0
584,6293334960938;	537,0;	0,0;	0,0
584,6903076171875;	522,75;	0,0;	0,0
584,7514038085938;	523,75;	0,0;	0,0
584,8123779296875;	506,0;	0,0;	0,0
584,8734130859375;	490,75;	0,0;	0,0
584,9344482421875;	564,0;	0,0;	0,0
584,9954223632812;	549,75;	0,0;	0,0
585,056396484375;	537,75;	0,0;	0,0
585,1173095703125;	541,0;	0,0;	0,0
585,1782836914062;	561,75;	0,0;	0,0
585,2391967773438;	601,0;	0,0;	0,0
585,3001098632812;	552,75;	0,0;	0,0
585,3609619140625;	558,75;	0,0;	0,0
585,4219360351562;	565,5;	0,0;	0,0
585,4827270507812;	536,25;	0,0;	0,0
585,5435791015625;	598,5;	0,0;	0,0
585,6044311523438;	664,25;	0,0;	0,0
585,6652221679688;	653,25;	0,0;	0,0
585,72607421875;	572,25;	0,0;	0,0
585,7868041992188;	619,0;	0,0;	0,0
585,8475952148438;	586,75;	0,0;	0,0
585,9083251953125;	620,5;	0,0;	0,0
585,9690551757812;	590,0;	0,0;	0,0
586,02978515625;	649,0;	0,0;	0,0
586,090576171875;	605,5;	0,0;	0,0
586,1511840820312;	603,75;	0,0;	0,0
586,2118530273438;	541,75;	0,0;	0,0
586,2725830078125;	583,0;	0,0;	0,0
586,3331909179688;	606,0;	0,0;	0,0
586,393798828125;	537,75;	0,0;	0,0
586,4544067382812;	586,75;	0,0;	0,0
586,5150146484375;	593,75;	0,0;	0,0
586,57568359375;	621,0;	0,0;	0,0
586,6361694335938;	623,0;	0,0;	0,0
586,6967163085938;	668,75;	0,0;	0,0
586,7573852539062;	650,25;	0,0;	0,0
586,8178100585938;	624,25;	0,0;	0,0
586,8783569335938;	630,5;	0,0;	0,0
586,9388427734375;	639,0;	0,0;	0,0
586,9993896484375;	683,75;	0,0;	0,0
587,0598754882812;	665,0;	0,0;	0,0
587,1202392578125;	690,5;	0,0;	0,0
587,1807250976562;	712,25;	0,0;	0,0
587,2410888671875;	690,0;	0,0;	0,0
587,301513671875;	653,75;	0,0;	0,0
587,3619384765625;	703,0;	0,0;	0,0
587,4223022460938;	726,75;	0,0;	0,0
587,482666015625;	721,0;	0,0;	0,0
587,5430297851562;	762,0;	0,0;	0,0
587,6033325195312;	740,25;	0,0;	0,0
587,6636352539062;	811,0;	0,0;	0,0
587,7239990234375;	823,75;	0,0;	0,0
587,7841796875;	856,0;	0,0;	0,0
587,8445434570312;	882,0;	0,0;	0,0
587,90478515625;	889,0;	0,0;	0,0
587,9649658203125;	960,0;	0,0;	0,0
588,0252075195312;	1004,75;	0,0;	0,0
588,08544921875;	1092,5;	0,0;	0,0
588,1456298828125;	1094,5;	0,0;	0,0
588,205810546875;	1324,5;	0,0;	0,0
588,2659301757812;	1461,5;	0,0;	0,0
588,3261108398438;	1698,25;	0,0;	0,0
588,3862915039062;	2032,25;	0,0;	0,0
588,4464111328125;	2496,25;	0,0;	0,0
588,5065307617188;	3259,25;	0,0;	0,0
588,5665893554688;	4495,75;	0,0;	0,0
588,6266479492188;	6861,5;	0,0;	0,0
588,6867065429688;	11355,5;	0,0;	0,0
588,7467041015625;	16383,75;	0,0;	0,0
588,8067626953125;	16383,75;	0,0;	0,0
588,8667602539062;	16383,75;	0,0;	0,0
588,9267578125;	16383,75;	0,0;	0,0
588,9867553710938;	16383,75;	0,0;	0,0
589,0467529296875;	9778,0;	0,0;	0,0
589,106689453125;	5862,5;	0,0;	0,0
589,1666259765625;	5201,75;	0,0;	0,0
589,2265625;	5900,0;	0,0;	0,0
589,2864379882812;	8325,75;	0,0;	0,0
589,3463745117188;	14872,0;	0,0;	0,0
589,4061889648438;	16383,75;	0,0;	0,0
589,466064453125;	16383,75;	0,0;	0,0
589,5259399414062;	16383,75;	0,0;	0,0
589,5857543945312;	10526,75;	0,0;	0,0
589,6455688476562;	5124,0;	0,0;	0,0
589,7053833007812;	3284,0;	0,0;	0,0
589,76513671875;	2360,0;	0,0;	0,0
589,824951171875;	1942,75;	0,0;	0,0
589,8847045898438;	1636,25;	0,0;	0,0
589,9443969726562;	1463,0;	0,0;	0,0
590,004150390625;	1380,0;	0,0;	0,0
590,0638427734375;	1221,0;	0,0;	0,0
590,12353515625;	1132,25;	0,0;	0,0
590,1832275390625;	1070,5;	0,0;	0,0
590,2428588867188;	1024,5;	0,0;	0,0
590,302490234375;	966,0;	0,0;	0,0
590,3621215820312;	990,0;	0,0;	0,0
590,4217529296875;	929,0;	0,0;	0,0
590,4813842773438;	885,75;	0,0;	0,0
590,5409545898438;	905,75;	0,0;	0,0
590,6005249023438;	795,5;	0,0;	0,0
590,6600952148438;	850,0;	0,0;	0,0
590,7196044921875;	809,5;	0,0;	0,0
590,7791137695312;	789,25;	0,0;	0,0
590,8386840820312;	814,25;	0,0;	0,0
590,8981323242188;	788,25;	0,0;	0,0
590,9576416015625;	799,5;	0,0;	0,0
591,0170288085938;	792,25;	0,0;	0,0
591,0765380859375;	819,0;	0,0;	0,0
591,135986328125;	868,0;	0,0;	0,0
591,1953735351562;	814,5;	0,0;	0,0
591,2547607421875;	864,75;	0,0;	0,0
591,314208984375;	837,0;	0,0;	0,0
591,37353515625;	790,5;	0,0;	0,0
591,4329223632812;	752,5;	0,0;	0,0
591,4922485351562;	773,25;	0,0;	0,0
591,551513671875;	717,25;	0,0;	0,0
591,6109008789062;	649,5;	0,0;	0,0
591,670166015625;	732,25;	0,0;	0,0
591,7294921875;	657,25;	0,0;	0,0
591,7887573242188;	657,0;	0,0;	0,0
591,847900390625;	689,0;	0,0;	0,0
591,9071655273438;	672,25;	0,0;	0,0
591,9664306640625;	715,0;	0,0;	0,0
592,025634765625;	691,5;	0,0;	0,0
592,0847778320312;	676,0;	0,0;	0,0
592,1439819335938;	650,5;	0,0;	0,0
592,203125;	657,0;	0,0;	0,0
592,2622680664062;	651,0;	0,0;	0,0
592,3214111328125;	664,75;	0,0;	0,0
592,3804931640625;	660,5;	0,0;	0,0
592,4396362304688;	660,25;	0,0;	0,0
592,4987182617188;	649,0;	0,0;	0,0
592,5577392578125;	681,0;	0,0;	0,0
592,6167602539062;	629,75;	0,0;	0,0
592,6758422851562;	642,75;	0,0;	0,0
592,73486328125;	649,5;	0,0;	0,0
592,7938842773438;	740,5;	0,0;	0,0
592,8528442382812;	763,0;	0,0;	0,0
592,9118041992188;	720,75;	0,0;	0,0
592,9707641601562;	636,75;	0,0;	0,0
593,0297241210938;	599,75;	0,0;	0,0
593,0886840820312;	613,25;	0,0;	0,0
593,1475219726562;	606,5;	0,0;	0,0
593,2064819335938;	601,75;	0,0;	0,0
593,2652587890625;	645,75;	0,0;	0,0
593,32421875;	676,25;	0,0;	0,0
593,383056640625;	669,5;	0,0;	0,0
593,44189453125;	602,25;	0,0;	0,0
593,5006713867188;	624,25;	0,0;	0,0
593,5595703125;	614,75;	0,0;	0,0
593,6182861328125;	576,5;	0,0;	0,0
593,6770629882812;	597,25;	0,0;	0,0
593,73583984375;	595,5;	0,0;	0,0
593,7945556640625;	560,0;	0,0;	0,0
593,853271484375;	586,25;	0,0;	0,0
593,9119262695312;	594,25;	0,0;	0,0
593,970703125;	611,0;	0,0;	0,0
594,0293579101562;	564,25;	0,0;	0,0
594,0880126953125;	545,5;	0,0;	0,0
594,146728515625;	572,0;	0,0;	0,0
594,205322265625;	583,5;	0,0;	0,0
594,263916015625;	592,5;	0,0;	0,0
594,3225708007812;	568,0;	0,0;	0,0
594,3811645507812;	549,25;	0,0;	0,0
594,439697265625;	546,5;	0,0;	0,0
594,498291015625;	578,75;	0,0;	0,0
594,5567626953125;	579,25;	0,0;	0,0
594,6153564453125;	577,0;	0,0;	0,0
594,673828125;	567,5;	0,0;	0,0
594,7322998046875;	581,25;	0,0;	0,0
594,790771484375;	574,75;	0,0;	0,0
594,8492431640625;	555,5;	0,0;	0,0
594,90771484375;	564,0;	0,0;	0,0
594,9661254882812;	545,75;	0,0;	0,0
595,0245971679688;	582,5;	0,0;	0,0
595,0829467773438;	548,25;	0,0;	0,0
595,141357421875;	573,75;	0,0;	0,0
595,19970703125;	565,0;	0,0;	0,0
595,2581176757812;	563,75;	0,0;	0,0
595,3164672851562;	523,75;	0,0;	0,0
595,374755859375;	505,0;	0,0;	0,0
595,4330444335938;	542,75;	0,0;	0,0
595,4913330078125;	536,0;	0,0;	0,0
595,5496215820312;	557,75;	0,0;	0,0
595,60791015625;	554,75;	0,0;	0,0
595,6661987304688;	573,0;	0,0;	0,0
595,724365234375;	534,75;	0,0;	0,0
595,7825927734375;	531,0;	0,0;	0,0
595,8408203125;	533,75;	0,0;	0,0
595,8989868164062;	519,25;	0,0;	0,0
595,9572143554688;	533,5;	0,0;	0,0
596,0153198242188;	581,75;	0,0;	0,0
596,073486328125;	550,0;	0,0;	0,0
596,1315307617188;	524,75;	0,0;	0,0
596,1896362304688;	568,5;	0,0;	0,0
596,247802734375;	573,75;	0,0;	0,0
596,3058471679688;	536,75;	0,0;	0,0
596,3638916015625;	527,5;	0,0;	0,0
596,4219970703125;	575,75;	0,0;	0,0
596,47998046875;	539,25;	0,0;	0,0
596,5380249023438;	508,25;	0,0;	0,0
596,5960083007812;	508,75;	0,0;	0,0
596,6539916992188;	521,75;	0,0;	0,0
596,7119750976562;	526,75;	0,0;	0,0
596,7698364257812;	510,0;	0,0;	0,0
596,8278198242188;	514,0;	0,0;	0,0
596,8858032226562;	521,75;	0,0;	0,0
596,9436645507812;	534,75;	0,0;	0,0
597,0015869140625;	537,75;	0,0;	0,0
597,0595092773438;	521,0;	0,0;	0,0
597,1173095703125;	533,0;	0,0;	0,0
597,1751098632812;	527,25;	0,0;	0,0
597,2329711914062;	578,25;	0,0;	0,0
597,290771484375;	515,75;	0,0;	0,0
597,3486328125;	552,5;	0,0;	0,0
597,4063110351562;	569,5;	0,0;	0,0
597,4641723632812;	590,5;	0,0;	0,0
597,5219116210938;	576,0;	0,0;	0,0
597,57958984375;	530,75;	0,0;	0,0
597,6373291015625;	545,75;	0,0;	0,0
597,695068359375;	542,75;	0,0;	0,0
597,7527465820312;	535,25;	0,0;	0,0
597,8104248046875;	548,0;	0,0;	0,0
597,8681030273438;	494,75;	0,0;	0,0
597,9257202148438;	520,25;	0,0;	0,0
597,9833374023438;	533,25;	0,0;	0,0
598,0408935546875;	532,0;	0,0;	0,0
598,0985107421875;	537,0;	0,0;	0,0
598,1561279296875;	562,75;	0,0;	0,0
598,2136840820312;	583,0;	0,0;	0,0
598,271240234375;	600,0;	0,0;	0,0
598,3287353515625;	617,0;	0,0;	0,0
598,3862915039062;	589,0;	0,0;	0,0
598,44384765625;	542,25;	0,0;	0,0
598,5012817382812;	572,5;	0,0;	0,0
598,5587158203125;	557,0;	0,0;	0,0
598,6162109375;	531,0;	0,0;	0,0
598,673583984375;	524,0;	0,0;	0,0
598,7310791015625;	489,5;	0,0;	0,0
598,7885131835938;	506,25;	0,0;	0,0
598,8458251953125;	510,5;	0,0;	0,0
598,9032592773438;	495,5;	0,0;	0,0
598,9605712890625;	501,0;	0,0;	0,0
599,0179443359375;	528,25;	0,0;	0,0
599,0753173828125;	501,0;	0,0;	0,0
599,132568359375;	491,75;	0,0;	0,0
599,1898803710938;	478,75;	0,0;	0,0
599,2472534179688;	516,5;	0,0;	0,0
599,3043823242188;	529,0;	0,0;	0,0
599,3616943359375;	495,5;	0,0;	0,0
599,4189453125;	486,25;	0,0;	0,0
599,4761352539062;	482,75;	0,0;	0,0
599,5333251953125;	506,75;	0,0;	0,0
599,5905151367188;	506,0;	0,0;	0,0
599,647705078125;	512,75;	0,0;	0,0
599,7049560546875;	516,5;	0,0;	0,0
599,7620239257812;	469,25;	0,0;	0,0
599,8191528320312;	502,75;	0,0;	0,0
599,8762817382812;	489,5;	0,0;	0,0
599,933349609375;	492,25;	0,0;	0,0
599,9904174804688;	492,25;	0,0;	0,0
600,0475463867188;	508,5;	0,0;	0,0
600,1045532226562;	504,25;	0,0;	0,0
600,16162109375;	565,75;	0,0;	0,0
600,2186279296875;	524,5;	0,0;	0,0
600,2755737304688;	497,0;	0,0;	0,0
600,3326416015625;	503,25;	0,0;	0,0
600,3895874023438;	462,0;	0,0;	0,0
600,446533203125;	511,25;	0,0;	0,0
600,5034790039062;	501,25;	0,0;	0,0
600,5603637695312;	528,0;	0,0;	0,0
600,6172485351562;	552,5;	0,0;	0,0
600,6742553710938;	581,0;	0,0;	0,0
600,7310791015625;	555,0;	0,0;	0,0
600,7879028320312;	517,5;	0,0;	0,0
600,8447265625;	486,5;	0,0;	0,0
600,9015502929688;	490,75;	0,0;	0,0
600,9584350585938;	494,5;	0,0;	0,0
601,0151977539062;	475,5;	0,0;	0,0
601,0719604492188;	493,75;	0,0;	0,0
601,1287231445312;	502,75;	0,0;	0,0
601,185546875;	495,75;	0,0;	0,0
601,2422485351562;	500,25;	0,0;	0,0
601,2989501953125;	482,75;	0,0;	0,0
601,355712890625;	447,75;	0,0;	0,0
601,412353515625;	531,25;	0,0;	0,0
601,468994140625;	499,75;	0,0;	0,0
601,5256958007812;	512,5;	0,0;	0,0
601,5823364257812;	499,25;	0,0;	0,0
601,6389770507812;	470,25;	0,0;	0,0
601,695556640625;	453,5;	0,0;	0,0
601,7521362304688;	569,75;	0,0;	0,0
601,8087158203125;	589,75;	0,0;	0,0
601,8652954101562;	610,0;	0,0;	0,0
601,9218139648438;	557,5;	0,0;	0,0
601,9783935546875;	527,75;	0,0;	0,0
602,034912109375;	548,75;	0,0;	0,0
602,0913696289062;	561,25;	0,0;	0,0
602,1478271484375;	572,0;	0,0;	0,0
602,204345703125;	643,75;	0,0;	0,0
602,2608032226562;	676,75;	0,0;	0,0
602,3171997070312;	617,75;	0,0;	0,0
602,3736572265625;	546,5;	0,0;	0,0
602,4300537109375;	481,5;	0,0;	0,0
602,4864501953125;	511,25;	0,0;	0,0
602,5427856445312;	503,75;	0,0;	0,0
602,5991821289062;	514,75;	0,0;	0,0
602,655517578125;	480,75;	0,0;	0,0
602,7117919921875;	485,75;	0,0;	0,0
602,7681274414062;	482,5;	0,0;	0,0
602,824462890625;	435,75;	0,0;	0,0
602,8806762695312;	457,25;	0,0;	0,0
602,93701171875;	458,75;	0,0;	0,0
602,9932250976562;	467,25;	0,0;	0,0
603,0494384765625;	443,25;	0,0;	0,0
603,105712890625;	457,25;	0,0;	0,0
603,161865234375;	439,5;	0,0;	0,0
603,2180786132812;	487,75;	0,0;	0,0
603,2742309570312;	442,0;	0,0;	0,0
603,3303833007812;	483,0;	0,0;	0,0
603,3865356445312;	450,0;	0,0;	0,0
603,4426879882812;	466,75;	0,0;	0,0
603,498779296875;	458,25;	0,0;	0,0
603,5548706054688;	457,0;	0,0;	0,0
603,6109008789062;	432,5;	0,0;	0,0
603,6669311523438;	466,5;	0,0;	0,0
603,7230224609375;	445,25;	0,0;	0,0
603,7789916992188;	443,5;	0,0;	0,0
603,8350219726562;	454,5;	0,0;	0,0
603,8909912109375;	476,25;	0,0;	0,0
603,947021484375;	455,75;	0,0;	0,0
604,0030517578125;	457,5;	0,0;	0,0
604,0589599609375;	478,75;	0,0;	0,0
604,1148681640625;	503,25;	0,0;	0,0
604,1707763671875;	465,5;	0,0;	0,0
604,2266845703125;	468,25;	0,0;	0,0
604,2825317382812;	481,75;	0,0;	0,0
604,3385009765625;	410,25;	0,0;	0,0
604,394287109375;	420,0;	0,0;	0,0
604,4501342773438;	437,25;	0,0;	0,0
604,5059204101562;	436,5;	0,0;	0,0
604,5617065429688;	450,25;	0,0;	0,0
604,6175537109375;	467,0;	0,0;	0,0
604,67333984375;	419,0;	0,0;	0,0
604,7290649414062;	448,5;	0,0;	0,0
604,7847900390625;	417,75;	0,0;	0,0
604,8405151367188;	432,5;	0,0;	0,0
604,896240234375;	457,0;	0,0;	0,0
604,9519653320312;	411,5;	0,0;	0,0
605,007568359375;	448,75;	0,0;	0,0
605,0632934570312;	455,75;	0,0;	0,0
605,118896484375;	466,75;	0,0;	0,0
605,174560546875;	439,5;	0,0;	0,0
605,2301635742188;	447,75;	0,0;	0,0
605,2857666015625;	463,25;	0,0;	0,0
605,34130859375;	471,25;	0,0;	0,0
605,3969116210938;	509,75;	0,0;	0,0
605,4524536132812;	473,25;	0,0;	0,0
605,5079956054688;	474,25;	0,0;	0,0
605,5635375976562;	436,0;	0,0;	0,0
605,6190185546875;	453,5;	0,0;	0,0
605,674560546875;	452,25;	0,0;	0,0
605,7299194335938;	433,0;	0,0;	0,0
605,7854614257812;	432,5;	0,0;	0,0
605,8409423828125;	451,5;	0,0;	0,0
605,896240234375;	446,25;	0,0;	0,0
605,9517211914062;	435,0;	0,0;	0,0
606,0070190429688;	449,0;	0,0;	0,0
606,0625;	459,25;	0,0;	0,0
606,1178588867188;	462,25;	0,0;	0,0
606,1732177734375;	441,5;	0,0;	0,0
606,228515625;	475,5;	0,0;	0,0
606,2838745117188;	496,0;	0,0;	0,0
606,339111328125;	581,5;	0,0;	0,0
606,3944091796875;	619,5;	0,0;	0,0
606,44970703125;	583,75;	0,0;	0,0
606,5048828125;	476,25;	0,0;	0,0
606,5601806640625;	457,0;	0,0;	0,0
606,6153564453125;	420,75;	0,0;	0,0
606,6705322265625;	428,75;	0,0;	0,0
606,7257690429688;	411,75;	0,0;	0,0
606,781005859375;	420,0;	0,0;	0,0
606,8360595703125;	430,0;	0,0;	0,0
606,8912353515625;	396,75;	0,0;	0,0
606,9463500976562;	425,75;	0,0;	0,0
607,0014038085938;	425,75;	0,0;	0,0
607,0565795898438;	455,0;	0,0;	0,0
607,1116333007812;	400,5;	0,0;	0,0
607,1666870117188;	432,25;	0,0;	0,0
607,2216796875;	409,25;	0,0;	0,0
607,2767333984375;	468,75;	0,0;	0,0
607,331787109375;	443,5;	0,0;	0,0
607,38671875;	455,25;	0,0;	0,0
607,4417114257812;	395,0;	0,0;	0,0
607,4967041015625;	427,5;	0,0;	0,0
607,5515747070312;	443,75;	0,0;	0,0
607,6065673828125;	479,75;	0,0;	0,0
607,6615600585938;	469,0;	0,0;	0,0
607,7163696289062;	505,0;	0,0;	0,0
607,771240234375;	502,25;	0,0;	0,0
607,8261108398438;	462,75;	0,0;	0,0
607,8809814453125;	471,25;	0,0;	0,0
607,935791015625;	412,0;	0,0;	0,0
607,9906005859375;	425,0;	0,0;	0,0
608,0454711914062;	411,0;	0,0;	0,0
608,1001586914062;	397,75;	0,0;	0,0
608,1549682617188;	441,0;	0,0;	0,0
608,2097778320312;	464,0;	0,0;	0,0
608,2645263671875;	443,0;	0,0;	0,0
608,3191528320312;	485,5;	0,0;	0,0
608,3739013671875;	433,25;	0,0;	0,0
608,4285888671875;	426,5;	0,0;	0,0
608,4832153320312;	399,5;	0,0;	0,0
608,5379638671875;	403,0;	0,0;	0,0
608,5925903320312;	420,75;	0,0;	0,0
608,647216796875;	453,0;	0,0;	0,0
608,7017822265625;	390,75;	0,0;	0,0
608,7564086914062;	422,25;	0,0;	0,0
608,8109741210938;	464,0;	0,0;	0,0
608,8656005859375;	460,25;	0,0;	0,0
608,9201049804688;	445,0;	0,0;	0,0
608,974609375;	454,25;	0,0;	0,0
609,0291137695312;	394,0;	0,0;	0,0
609,0836181640625;	420,5;	0,0;	0,0
609,1381225585938;	430,5;	0,0;	0,0
609,1925659179688;	466,0;	0,0;	0,0
609,2470092773438;	459,5;	0,0;	0,0
609,3014526367188;	518,0;	0,0;	0,0
609,3558349609375;	477,75;	0,0;	0,0
609,4102783203125;	496,75;	0,0;	0,0
609,4646606445312;	484,0;	0,0;	0,0
609,51904296875;	511,25;	0,0;	0,0
609,5734252929688;	522,5;	0,0;	0,0
609,627685546875;	496,25;	0,0;	0,0
609,6820678710938;	424,75;	0,0;	0,0
609,7363891601562;	465,5;	0,0;	0,0
609,7906494140625;	493,5;	0,0;	0,0
609,844970703125;	497,25;	0,0;	0,0
609,899169921875;	490,0;	0,0;	0,0
609,953369140625;	527,25;	0,0;	0,0
610,0076293945312;	606,75;	0,0;	0,0
610,0618286132812;	768,25;	0,0;	0,0
610,1160888671875;	1042,5;	0,0;	0,0
610,170166015625;	1305,5;	0,0;	0,0
610,224365234375;	1358,5;	0,0;	0,0
610,2785034179688;	912,25;	0,0;	0,0
610,3327026367188;	642,0;	0,0;	0,0
610,3867797851562;	480,75;	0,0;	0,0
610,4408569335938;	455,75;	0,0;	0,0
610,4949340820312;	461,25;	0,0;	0,0
610,549072265625;	455,0;	0,0;	0,0
610,6030883789062;	461,5;	0,0;	0,0
610,6571044921875;	467,75;	0,0;	0,0
610,7111206054688;	462,25;	0,0;	0,0
610,7650756835938;	472,5;	0,0;	0,0
610,819091796875;	502,5;	0,0;	0,0
610,8731079101562;	466,25;	0,0;	0,0
610,9270629882812;	453,75;	0,0;	0,0
610,98095703125;	438,0;	0,0;	0,0
611,034912109375;	455,25;	0,0;	0,0
611,0887451171875;	425,25;	0,0;	0,0
611,1427001953125;	447,0;	0,0;	0,0
611,1965942382812;	425,25;	0,0;	0,0
611,2503662109375;	429,5;	0,0;	0,0
611,30419921875;	438,0;	0,0;	0,0
611,3580322265625;	427,5;	0,0;	0,0
611,411865234375;	486,0;	0,0;	0,0
611,4656982421875;	448,0;	0,0;	0,0
611,5194702148438;	446,25;	0,0;	0,0
611,5731811523438;	470,5;	0,0;	0,0
611,626953125;	427,25;	0,0;	0,0
611,6806640625;	454,5;	0,0;	0,0
611,734375;	438,0;	0,0;	0,0
611,7880859375;	446,5;	0,0;	0,0
611,8417358398438;	439,25;	0,0;	0,0
611,8953857421875;	468,5;	0,0;	0,0
611,9490356445312;	532,75;	0,0;	0,0
612,002685546875;	601,5;	0,0;	0,0
612,0562744140625;	800,75;	0,0;	0,0
612,1099243164062;	739,5;	0,0;	0,0
612,1635131835938;	594,25;	0,0;	0,0
612,2171020507812;	510,75;	0,0;	0,0
612,2705688476562;	465,25;	0,0;	0,0
612,3241577148438;	448,75;	0,0;	0,0
612,3776245117188;	440,75;	0,0;	0,0
612,4310913085938;	425,0;	0,0;	0,0
612,484619140625;	435,75;	0,0;	0,0
612,5380859375;	454,0;	0,0;	0,0
612,591552734375;	467,25;	0,0;	0,0
612,64501953125;	469,75;	0,0;	0,0
612,6983642578125;	466,0;	0,0;	0,0
612,7518310546875;	461,25;	0,0;	0,0
612,80517578125;	457,5;	0,0;	0,0
612,8585205078125;	429,0;	0,0;	0,0
612,9119262695312;	435,25;	0,0;	0,0
612,9652709960938;	422,0;	0,0;	0,0
613,0185546875;	441,0;	0,0;	0,0
613,0718383789062;	441,25;	0,0;	0,0
613,1251220703125;	443,5;	0,0;	0,0
613,1784057617188;	452,0;	0,0;	0,0
613,2317504882812;	472,5;	0,0;	0,0
613,2849731445312;	463,5;	0,0;	0,0
613,338134765625;	473,0;	0,0;	0,0
613,391357421875;	577,75;	0,0;	0,0
613,4445190429688;	692,0;	0,0;	0,0
613,4977416992188;	870,25;	0,0;	0,0
613,5509033203125;	906,75;	0,0;	0,0
613,6040649414062;	859,5;	0,0;	0,0
613,6572265625;	685,75;	0,0;	0,0
613,7102661132812;	546,0;	0,0;	0,0
613,7633666992188;	453,5;	0,0;	0,0
613,8164672851562;	443,75;	0,0;	0,0
613,8695068359375;	445,75;	0,0;	0,0
613,922607421875;	459,75;	0,0;	0,0
613,9755859375;	548,5;	0,0;	0,0
614,028564453125;	560,75;	0,0;	0,0
614,0816040039062;	510,75;	0,0;	0,0
614,1346435546875;	451,25;	0,0;	0,0
614,1875610351562;	446,75;	0,0;	0,0
614,2405395507812;	438,75;	0,0;	0,0
614,2933959960938;	418,25;	0,0;	0,0
614,3463745117188;	445,75;	0,0;	0,0
614,3992919921875;	434,0;	0,0;	0,0
614,4521484375;	431,75;	0,0;	0,0
614,5050048828125;	409,75;	0,0;	0,0
614,5578002929688;	443,5;	0,0;	0,0
614,6106567382812;	465,25;	0,0;	0,0
614,6635131835938;	468,5;	0,0;	0,0
614,7163696289062;	447,75;	0,0;	0,0
614,7691040039062;	445,25;	0,0;	0,0
614,8218994140625;	415,25;	0,0;	0,0
614,8746337890625;	437,0;	0,0;	0,0
614,9273681640625;	450,75;	0,0;	0,0
614,9801025390625;	433,75;	0,0;	0,0
615,0327758789062;	461,0;	0,0;	0,0
615,0855102539062;	457,5;	0,0;	0,0
615,1381225585938;	468,5;	0,0;	0,0
615,1908569335938;	501,75;	0,0;	0,0
615,2434692382812;	514,75;	0,0;	0,0
615,2960815429688;	522,0;	0,0;	0,0
615,3486938476562;	484,75;	0,0;	0,0
615,4012451171875;	473,75;	0,0;	0,0
615,453857421875;	461,75;	0,0;	0,0
615,5064697265625;	472,75;	0,0;	0,0
615,5589599609375;	484,0;	0,0;	0,0
615,6114501953125;	519,25;	0,0;	0,0
615,6640014648438;	514,75;	0,0;	0,0
615,7164306640625;	509,25;	0,0;	0,0
615,7689819335938;	473,25;	0,0;	0,0
615,8214111328125;	577,5;	0,0;	0,0
615,8738403320312;	599,5;	0,0;	0,0
615,9263305664062;	761,75;	0,0;	0,0
615,9786987304688;	861,0;	0,0;	0,0
616,0310668945312;	1019,0;	0,0;	0,0
616,08349609375;	978,25;	0,0;	0,0
616,1358642578125;	840,25;	0,0;	0,0
616,1881713867188;	581,75;	0,0;	0,0
616,2405395507812;	523,5;	0,0;	0,0
616,2928466796875;	519,5;	0,0;	0,0
616,3450927734375;	492,0;	0,0;	0,0
616,3974609375;	505,5;	0,0;	0,0
616,4496459960938;	519,25;	0,0;	0,0
616,501953125;	507,75;	0,0;	0,0
616,5540771484375;	508,75;	0,0;	0,0
616,6063842773438;	501,0;	0,0;	0,0
616,6585693359375;	500,75;	0,0;	0,0
616,7107543945312;	536,0;	0,0;	0,0
616,7628784179688;	590,25;	0,0;	0,0
616,8150634765625;	611,75;	0,0;	0,0
616,8671264648438;	594,5;	0,0;	0,0
616,9193115234375;	543,75;	0,0;	0,0
616,971435546875;	517,5;	0,0;	0,0
617,0234985351562;	494,0;	0,0;	0,0
617,0756225585938;	441,25;	0,0;	0,0
617,1275634765625;	479,25;	0,0;	0,0
617,1796875;	487,25;	0,0;	0,0
617,231689453125;	491,25;	0,0;	0,0
617,28369140625;	480,5;	0,0;	0,0
617,3356323242188;	482,0;	0,0;	0,0
617,3876953125;	482,0;	0,0;	0,0
617,4395751953125;	467,0;	0,0;	0,0
617,4915161132812;	447,0;	0,0;	0,0
617,54345703125;	482,75;	0,0;	0,0
617,5953369140625;	474,0;	0,0;	0,0
617,6472778320312;	459,0;	0,0;	0,0
617,6990966796875;	506,5;	0,0;	0,0
617,7509765625;	498,5;	0,0;	0,0
617,8027954101562;	501,75;	0,0;	0,0
617,8546142578125;	517,0;	0,0;	0,0
617,906494140625;	514,5;	0,0;	0,0
617,9581909179688;	495,75;	0,0;	0,0
618,010009765625;	505,25;	0,0;	0,0
618,061767578125;	505,25;	0,0;	0,0
618,113525390625;	513,5;	0,0;	0,0
618,1652221679688;	513,25;	0,0;	0,0
618,2169799804688;	499,25;	0,0;	0,0
618,2686157226562;	531,0;	0,0;	0,0
618,3203125;	485,5;	0,0;	0,0
618,3720092773438;	472,75;	0,0;	0,0
618,423583984375;	447,0;	0,0;	0,0
618,4752197265625;	483,5;	0,0;	0,0
618,5267944335938;	478,5;	0,0;	0,0
618,5784301757812;	480,25;	0,0;	0,0
618,6300048828125;	467,75;	0,0;	0,0
618,681640625;	495,0;	0,0;	0,0
618,7330932617188;	456,75;	0,0;	0,0
618,7846069335938;	491,75;	0,0;	0,0
618,8361206054688;	538,5;	0,0;	0,0
618,8876342773438;	560,25;	0,0;	0,0
618,9391479492188;	640,0;	0,0;	0,0
618,9905395507812;	758,25;	0,0;	0,0
619,0419921875;	750,75;	0,0;	0,0
619,0933837890625;	563,75;	0,0;	0,0
619,1448364257812;	474,5;	0,0;	0,0
619,1962890625;	462,0;	0,0;	0,0
619,2476196289062;	453,5;	0,0;	0,0
619,2990112304688;	474,75;	0,0;	0,0
619,3504028320312;	498,75;	0,0;	0,0
619,4016723632812;	453,25;	0,0;	0,0
619,4530029296875;	459,0;	0,0;	0,0
619,5043334960938;	497,25;	0,0;	0,0
619,5555419921875;	487,75;	0,0;	0,0
619,6068115234375;	461,75;	0,0;	0,0
619,6580810546875;	470,5;	0,0;	0,0
619,7092895507812;	461,5;	0,0;	0,0
619,7605590820312;	499,5;	0,0;	0,0
619,8117065429688;	482,25;	0,0;	0,0
619,8628540039062;	483,25;	0,0;	0,0
619,9140014648438;	461,75;	0,0;	0,0
619,9652099609375;	485,25;	0,0;	0,0
620,0162963867188;	475,25;	0,0;	0,0
620,0675048828125;	438,0;	0,0;	0,0
620,1185913085938;	477,0;	0,0;	0,0
620,169677734375;	451,25;	0,0;	0,0
620,2206420898438;	487,0;	0,0;	0,0
620,2717895507812;	477,0;	0,0;	0,0
620,3228149414062;	452,0;	0,0;	0,0
620,373779296875;	473,5;	0,0;	0,0
620,4248046875;	455,5;	0,0;	0,0
620,4757690429688;	436,0;	0,0;	0,0
620,5267333984375;	509,0;	0,0;	0,0
620,5777587890625;	437,0;	0,0;	0,0
620,628662109375;	457,25;	0,0;	0,0
620,6795654296875;	487,25;	0,0;	0,0
620,73046875;	478,0;	0,0;	0,0
620,7813110351562;	495,0;	0,0;	0,0
620,8322143554688;	479,5;	0,0;	0,0
620,883056640625;	500,5;	0,0;	0,0
620,933837890625;	472,0;	0,0;	0,0
620,9846801757812;	460,0;	0,0;	0,0
621,0354614257812;	439,5;	0,0;	0,0
621,0863037109375;	458,75;	0,0;	0,0
621,1370849609375;	506,75;	0,0;	0,0
621,1878662109375;	502,0;	0,0;	0,0
621,2385864257812;	474,5;	0,0;	0,0
621,2892456054688;	453,75;	0,0;	0,0
621,3399047851562;	501,75;	0,0;	0,0
621,3906860351562;	474,75;	0,0;	0,0
621,4413452148438;	466,5;	0,0;	0,0
621,491943359375;	460,25;	0,0;	0,0
621,5426025390625;	467,25;	0,0;	0,0
621,5931396484375;	484,75;	0,0;	0,0
621,643798828125;	459,25;	0,0;	0,0
621,6943969726562;	490,25;	0,0;	0,0
621,7449951171875;	535,5;	0,0;	0,0
621,7955322265625;	539,5;	0,0;	0,0
621,8460693359375;	508,75;	0,0;	0,0
621,8965454101562;	501,5;	0,0;	0,0
621,9470825195312;	526,0;	0,0;	0,0
621,9976196289062;	457,25;	0,0;	0,0
622,0480346679688;	479,75;	0,0;	0,0
622,0985107421875;	469,25;	0,0;	0,0
622,1488647460938;	476,75;	0,0;	0,0
622,1993408203125;	500,0;	0,0;	0,0
622,249755859375;	466,0;	0,0;	0,0
622,3001708984375;	500,25;	0,0;	0,0
622,3505249023438;	469,5;	0,0;	0,0
622,4008178710938;	454,75;	0,0;	0,0
622,451171875;	465,0;	0,0;	0,0
622,5015258789062;	487,5;	0,0;	0,0
622,5518798828125;	482,5;	0,0;	0,0
622,6021118164062;	470,25;	0,0;	0,0
622,6524047851562;	524,25;	0,0;	0,0
622,7025756835938;	505,5;	0,0;	0,0
622,7528686523438;	504,75;	0,0;	0,0
622,8031616210938;	610,75;	0,0;	0,0
622,853271484375;	635,5;	0,0;	0,0
622,9034423828125;	852,0;	0,0;	0,0
622,95361328125;	835,25;	0,0;	0,0
623,0037841796875;	642,75;	0,0;	0,0
623,053955078125;	524,25;	0,0;	0,0
623,1040649414062;	527,25;	0,0;	0,0
623,1541137695312;	503,5;	0,0;	0,0
623,2042236328125;	525,5;	0,0;	0,0
623,2542724609375;	482,25;	0,0;	0,0
623,3043823242188;	474,0;	0,0;	0,0
623,3544311523438;	491,5;	0,0;	0,0
623,4044189453125;	500,25;	0,0;	0,0
623,4544677734375;	494,25;	0,0;	0,0
623,50439453125;	468,0;	0,0;	0,0
623,5543823242188;	465,5;	0,0;	0,0
623,6043701171875;	451,75;	0,0;	0,0
623,6543579101562;	458,5;	0,0;	0,0
623,7042236328125;	441,5;	0,0;	0,0
623,754150390625;	460,0;	0,0;	0,0
623,803955078125;	480,75;	0,0;	0,0
623,8538818359375;	494,25;	0,0;	0,0
623,9037475585938;	490,25;	0,0;	0,0
623,9535522460938;	470,75;	0,0;	0,0
624,0033569335938;	463,0;	0,0;	0,0
624,0531616210938;	472,25;	0,0;	0,0
624,1029663085938;	435,5;	0,0;	0,0
624,1527709960938;	469,5;	0,0;	0,0
624,2025756835938;	482,75;	0,0;	0,0
624,2522583007812;	499,5;	0,0;	0,0
624,3019409179688;	497,0;	0,0;	0,0
624,3516235351562;	504,75;	0,0;	0,0
624,4013671875;	541,25;	0,0;	0,0
624,4510498046875;	577,75;	0,0;	0,0
624,5006713867188;	634,75;	0,0;	0,0
624,5503540039062;	531,5;	0,0;	0,0
624,599853515625;	530,25;	0,0;	0,0
624,6495361328125;	474,0;	0,0;	0,0
624,6991577148438;	495,25;	0,0;	0,0
624,7486572265625;	439,25;	0,0;	0,0
624,7982177734375;	481,75;	0,0;	0,0
624,8477172851562;	461,0;	0,0;	0,0
624,8972778320312;	511,5;	0,0;	0,0
624,94677734375;	469,0;	0,0;	0,0
624,9962768554688;	533,5;	0,0;	0,0
625,0457763671875;	578,75;	0,0;	0,0
625,09521484375;	668,5;	0,0;	0,0
625,1446533203125;	627,75;	0,0;	0,0
625,194091796875;	594,5;	0,0;	0,0
625,2434692382812;	525,25;	0,0;	0,0
625,2928466796875;	478,25;	0,0;	0,0
625,3422241210938;	466,75;	0,0;	0,0
625,3914794921875;	482,25;	0,0;	0,0
625,44091796875;	527,75;	0,0;	0,0
625,490234375;	490,0;	0,0;	0,0
625,53955078125;	480,0;	0,0;	0,0
625,5888061523438;	488,75;	0,0;	0,0
625,6380615234375;	492,0;	0,0;	0,0
625,687255859375;	479,25;	0,0;	0,0
625,736572265625;	479,0;	0,0;	0,0
625,7858276367188;	0,0;	0,0;	0,0
