-0.5	0.0
Integration time [ms]:	1.05
Averaging Nr. [scans]:1
Smoothing Nr. [pixels]:0
Data measured with spectrometer [name]:b'1703279U8'
Wave	;Sample	;Dark	;Reference	;Scope	
[nm]	;[counts]	;[counts]	;[counts]	
 
725,3621826171875;	354,0;	0,0;	0,0
725,4813842773438;	381,0;	0,0;	0,0
725,6005249023438;	360,75;	0,0;	0,0
725,7197265625;	344,75;	0,0;	0,0
725,8388671875;	383,5;	0,0;	0,0
725,9579467773438;	386,0;	0,0;	0,0
726,0770874023438;	362,0;	0,0;	0,0
726,1961669921875;	366,25;	0,0;	0,0
726,315185546875;	368,75;	0,0;	0,0
726,4342651367188;	353,75;	0,0;	0,0
726,5532836914062;	374,0;	0,0;	0,0
726,6723022460938;	388,0;	0,0;	0,0
726,7913208007812;	390,5;	0,0;	0,0
726,9102783203125;	368,25;	0,0;	0,0
727,0292358398438;	370,25;	0,0;	0,0
727,148193359375;	395,0;	0,0;	0,0
727,26708984375;	409,0;	0,0;	0,0
727,385986328125;	369,75;	0,0;	0,0
727,5048828125;	404,5;	0,0;	0,0
727,6237182617188;	392,5;	0,0;	0,0
727,7426147460938;	397,0;	0,0;	0,0
727,8614501953125;	394,5;	0,0;	0,0
727,9801635742188;	383,25;	0,0;	0,0
728,0989379882812;	406,25;	0,0;	0,0
728,2177124023438;	378,25;	0,0;	0,0
728,3364868164062;	407,0;	0,0;	0,0
728,4552612304688;	384,25;	0,0;	0,0
728,573974609375;	367,0;	0,0;	0,0
728,6926879882812;	394,0;	0,0;	0,0
728,8113403320312;	397,0;	0,0;	0,0
728,9299926757812;	378,0;	0,0;	0,0
729,0486450195312;	379,0;	0,0;	0,0
729,1672973632812;	408,5;	0,0;	0,0
729,285888671875;	439,0;	0,0;	0,0
729,4044799804688;	399,5;	0,0;	0,0
729,5230712890625;	395,5;	0,0;	0,0
729,6416625976562;	382,5;	0,0;	0,0
729,7601928710938;	349,25;	0,0;	0,0
729,8787231445312;	359,5;	0,0;	0,0
729,9971313476562;	374,25;	0,0;	0,0
730,1156005859375;	367,25;	0,0;	0,0
730,2340698242188;	385,25;	0,0;	0,0
730,3525390625;	403,0;	0,0;	0,0
730,470947265625;	380,75;	0,0;	0,0
730,58935546875;	392,0;	0,0;	0,0
730,707763671875;	364,5;	0,0;	0,0
730,826171875;	364,0;	0,0;	0,0
730,9445190429688;	411,5;	0,0;	0,0
731,0628662109375;	413,75;	0,0;	0,0
731,18115234375;	387,5;	0,0;	0,0
731,2994995117188;	401,75;	0,0;	0,0
731,4177856445312;	379,5;	0,0;	0,0
731,5360107421875;	394,75;	0,0;	0,0
731,654296875;	387,75;	0,0;	0,0
731,7725219726562;	381,25;	0,0;	0,0
731,8906860351562;	416,75;	0,0;	0,0
732,0088500976562;	408,25;	0,0;	0,0
732,1270141601562;	399,75;	0,0;	0,0
732,2451782226562;	372,25;	0,0;	0,0
732,3633422851562;	410,0;	0,0;	0,0
732,4814453125;	434,75;	0,0;	0,0
732,5995483398438;	451,0;	0,0;	0,0
732,7176513671875;	396,75;	0,0;	0,0
732,8357543945312;	380,0;	0,0;	0,0
732,9537963867188;	375,5;	0,0;	0,0
733,07177734375;	388,25;	0,0;	0,0
733,189697265625;	385,5;	0,0;	0,0
733,3076782226562;	390,25;	0,0;	0,0
733,4256591796875;	397,0;	0,0;	0,0
733,5436401367188;	391,25;	0,0;	0,0
733,6615600585938;	403,5;	0,0;	0,0
733,7794799804688;	396,25;	0,0;	0,0
733,8973999023438;	392,5;	0,0;	0,0
734,0152587890625;	383,5;	0,0;	0,0
734,1331176757812;	423,5;	0,0;	0,0
734,2509765625;	429,75;	0,0;	0,0
734,3687744140625;	398,0;	0,0;	0,0
734,486572265625;	401,75;	0,0;	0,0
734,6043701171875;	417,25;	0,0;	0,0
734,72216796875;	378,25;	0,0;	0,0
734,8399047851562;	398,25;	0,0;	0,0
734,9576416015625;	392,5;	0,0;	0,0
735,0753173828125;	428,75;	0,0;	0,0
735,1930541992188;	424,5;	0,0;	0,0
735,3107299804688;	382,0;	0,0;	0,0
735,4283447265625;	401,0;	0,0;	0,0
735,5460205078125;	402,25;	0,0;	0,0
735,6636352539062;	381,25;	0,0;	0,0
735,78125;	383,25;	0,0;	0,0
735,8988647460938;	371,0;	0,0;	0,0
736,016357421875;	391,5;	0,0;	0,0
736,1339111328125;	399,0;	0,0;	0,0
736,25146484375;	403,0;	0,0;	0,0
736,3690185546875;	416,5;	0,0;	0,0
736,4864501953125;	385,0;	0,0;	0,0
736,6039428710938;	385,75;	0,0;	0,0
736,7213745117188;	386,0;	0,0;	0,0
736,8388671875;	369,5;	0,0;	0,0
736,9562377929688;	419,25;	0,0;	0,0
737,0736083984375;	420,5;	0,0;	0,0
737,1910400390625;	404,25;	0,0;	0,0
737,3084106445312;	397,5;	0,0;	0,0
737,4257202148438;	401,25;	0,0;	0,0
737,5430297851562;	397,0;	0,0;	0,0
737,660400390625;	398,25;	0,0;	0,0
737,7776489257812;	388,0;	0,0;	0,0
737,8948974609375;	413,25;	0,0;	0,0
738,01220703125;	405,0;	0,0;	0,0
738,1294555664062;	395,0;	0,0;	0,0
738,24658203125;	402,5;	0,0;	0,0
738,36376953125;	419,5;	0,0;	0,0
738,48095703125;	422,5;	0,0;	0,0
738,5980834960938;	445,0;	0,0;	0,0
738,7152709960938;	424,5;	0,0;	0,0
738,8323974609375;	466,75;	0,0;	0,0
738,949462890625;	469,75;	0,0;	0,0
739,0665893554688;	390,75;	0,0;	0,0
739,18359375;	415,0;	0,0;	0,0
739,3006591796875;	424,25;	0,0;	0,0
739,417724609375;	405,25;	0,0;	0,0
739,53466796875;	426,25;	0,0;	0,0
739,6517333984375;	406,25;	0,0;	0,0
739,7686767578125;	402,0;	0,0;	0,0
739,8856201171875;	397,0;	0,0;	0,0
740,0025634765625;	432,0;	0,0;	0,0
740,1195068359375;	432,5;	0,0;	0,0
740,2363891601562;	395,0;	0,0;	0,0
740,353271484375;	407,5;	0,0;	0,0
740,4701538085938;	366,5;	0,0;	0,0
740,5869750976562;	414,5;	0,0;	0,0
740,7037963867188;	410,25;	0,0;	0,0
740,8206176757812;	406,0;	0,0;	0,0
740,9373779296875;	455,25;	0,0;	0,0
741,05419921875;	498,25;	0,0;	0,0
741,1708984375;	420,25;	0,0;	0,0
741,2876586914062;	409,75;	0,0;	0,0
741,4043579101562;	396,5;	0,0;	0,0
741,5211181640625;	416,0;	0,0;	0,0
741,6377563476562;	411,5;	0,0;	0,0
741,7544555664062;	425,0;	0,0;	0,0
741,8710327148438;	417,25;	0,0;	0,0
741,9876098632812;	460,25;	0,0;	0,0
742,104248046875;	547,5;	0,0;	0,0
742,2208251953125;	757,75;	0,0;	0,0
742,33740234375;	920,5;	0,0;	0,0
742,4539794921875;	641,5;	0,0;	0,0
742,5704956054688;	476,5;	0,0;	0,0
742,68701171875;	418,25;	0,0;	0,0
742,8035278320312;	446,75;	0,0;	0,0
742,9199829101562;	427,25;	0,0;	0,0
743,036376953125;	414,75;	0,0;	0,0
743,1528930664062;	434,25;	0,0;	0,0
743,2692260742188;	424,5;	0,0;	0,0
743,3856201171875;	415,25;	0,0;	0,0
743,5020141601562;	426,0;	0,0;	0,0
743,6183471679688;	439,25;	0,0;	0,0
743,7346801757812;	474,5;	0,0;	0,0
743,8510131835938;	508,25;	0,0;	0,0
743,9673461914062;	641,0;	0,0;	0,0
744,0835571289062;	1068,5;	0,0;	0,0
744,1998901367188;	1555,5;	0,0;	0,0
744,3161010742188;	988,25;	0,0;	0,0
744,4323120117188;	703,5;	0,0;	0,0
744,548583984375;	640,0;	0,0;	0,0
744,664794921875;	466,25;	0,0;	0,0
744,7809448242188;	424,25;	0,0;	0,0
744,8970947265625;	440,0;	0,0;	0,0
745,0132446289062;	447,75;	0,0;	0,0
745,1293334960938;	406,5;	0,0;	0,0
745,2454223632812;	418,0;	0,0;	0,0
745,3615112304688;	431,5;	0,0;	0,0
745,4776000976562;	397,0;	0,0;	0,0
745,5936279296875;	441,25;	0,0;	0,0
745,7096557617188;	395,25;	0,0;	0,0
745,82568359375;	414,0;	0,0;	0,0
745,941650390625;	445,25;	0,0;	0,0
746,0576171875;	420,5;	0,0;	0,0
746,173583984375;	475,0;	0,0;	0,0
746,28955078125;	464,0;	0,0;	0,0
746,4054565429688;	532,5;	0,0;	0,0
746,5213012695312;	651,5;	0,0;	0,0
746,63720703125;	1098,75;	0,0;	0,0
746,7530517578125;	1973,0;	0,0;	0,0
746,868896484375;	1599,5;	0,0;	0,0
746,9846801757812;	881,75;	0,0;	0,0
747,1004638671875;	566,25;	0,0;	0,0
747,2162475585938;	520,75;	0,0;	0,0
747,3320922851562;	469,0;	0,0;	0,0
747,4478149414062;	468,75;	0,0;	0,0
747,5635375976562;	448,25;	0,0;	0,0
747,6792602539062;	442,0;	0,0;	0,0
747,794921875;	432,75;	0,0;	0,0
747,9105834960938;	451,5;	0,0;	0,0
748,0262451171875;	429,25;	0,0;	0,0
748,1419067382812;	411,5;	0,0;	0,0
748,2574462890625;	438,0;	0,0;	0,0
748,373046875;	417,75;	0,0;	0,0
748,488525390625;	392,75;	0,0;	0,0
748,6041259765625;	409,0;	0,0;	0,0
748,7196655273438;	383,75;	0,0;	0,0
748,835205078125;	397,5;	0,0;	0,0
748,95068359375;	387,75;	0,0;	0,0
749,066162109375;	443,25;	0,0;	0,0
749,181640625;	409,0;	0,0;	0,0
749,297119140625;	471,25;	0,0;	0,0
749,4125366210938;	660,75;	0,0;	0,0
749,5278930664062;	489,75;	0,0;	0,0
749,6432495117188;	387,5;	0,0;	0,0
749,7586669921875;	374,5;	0,0;	0,0
749,8740234375;	383,0;	0,0;	0,0
749,9893798828125;	403,25;	0,0;	0,0
750,1046752929688;	413,25;	0,0;	0,0
750,2199096679688;	416,75;	0,0;	0,0
750,335205078125;	397,75;	0,0;	0,0
750,4505004882812;	398,0;	0,0;	0,0
750,5657348632812;	396,5;	0,0;	0,0
750,680908203125;	392,5;	0,0;	0,0
750,796142578125;	414,25;	0,0;	0,0
750,9113159179688;	540,25;	0,0;	0,0
751,0264282226562;	792,5;	0,0;	0,0
751,1416015625;	526,75;	0,0;	0,0
751,2567749023438;	412,75;	0,0;	0,0
751,371826171875;	409,5;	0,0;	0,0
751,4869384765625;	378,0;	0,0;	0,0
751,6019897460938;	385,25;	0,0;	0,0
751,717041015625;	371,25;	0,0;	0,0
751,8320922851562;	386,25;	0,0;	0,0
751,9470825195312;	362,25;	0,0;	0,0
752,0620727539062;	352,0;	0,0;	0,0
752,1770629882812;	410,0;	0,0;	0,0
752,2919921875;	415,5;	0,0;	0,0
752,4069213867188;	375,0;	0,0;	0,0
752,5218505859375;	364,0;	0,0;	0,0
752,63671875;	412,0;	0,0;	0,0
752,7515869140625;	351,0;	0,0;	0,0
752,866455078125;	392,25;	0,0;	0,0
752,9813232421875;	436,5;	0,0;	0,0
753,0961303710938;	425,5;	0,0;	0,0
753,2108764648438;	396,5;	0,0;	0,0
753,32568359375;	399,5;	0,0;	0,0
753,4404296875;	390,0;	0,0;	0,0
753,55517578125;	382,75;	0,0;	0,0
753,669921875;	368,25;	0,0;	0,0
753,7846069335938;	400,25;	0,0;	0,0
753,8992919921875;	383,75;	0,0;	0,0
754,0139770507812;	364,0;	0,0;	0,0
754,128662109375;	402,25;	0,0;	0,0
754,2432250976562;	409,0;	0,0;	0,0
754,3578491210938;	409,5;	0,0;	0,0
754,4724731445312;	373,75;	0,0;	0,0
754,5870361328125;	369,5;	0,0;	0,0
754,7015991210938;	408,5;	0,0;	0,0
754,8161010742188;	377,0;	0,0;	0,0
754,9306640625;	377,75;	0,0;	0,0
755,045166015625;	377,75;	0,0;	0,0
755,1596069335938;	379,25;	0,0;	0,0
755,2740478515625;	401,75;	0,0;	0,0
755,3885498046875;	400,5;	0,0;	0,0
755,5029907226562;	368,25;	0,0;	0,0
755,6173706054688;	377,25;	0,0;	0,0
755,7317504882812;	382,0;	0,0;	0,0
755,8460693359375;	359,75;	0,0;	0,0
755,96044921875;	386,25;	0,0;	0,0
756,0748291015625;	385,5;	0,0;	0,0
756,1890869140625;	367,0;	0,0;	0,0
756,3034057617188;	386,5;	0,0;	0,0
756,4176635742188;	405,75;	0,0;	0,0
756,5319213867188;	375,5;	0,0;	0,0
756,6461181640625;	426,75;	0,0;	0,0
756,7603759765625;	408,0;	0,0;	0,0
756,8745727539062;	392,25;	0,0;	0,0
756,9887084960938;	399,25;	0,0;	0,0
757,1029052734375;	394,25;	0,0;	0,0
757,217041015625;	379,75;	0,0;	0,0
757,3311157226562;	412,0;	0,0;	0,0
757,4452514648438;	376,5;	0,0;	0,0
757,559326171875;	397,5;	0,0;	0,0
757,6734008789062;	368,5;	0,0;	0,0
757,7874145507812;	419,75;	0,0;	0,0
757,9013671875;	374,5;	0,0;	0,0
758,0154418945312;	365,75;	0,0;	0,0
758,1293334960938;	380,25;	0,0;	0,0
758,2433471679688;	420,25;	0,0;	0,0
758,3572998046875;	414,25;	0,0;	0,0
758,4712524414062;	470,75;	0,0;	0,0
758,5850830078125;	475,25;	0,0;	0,0
758,698974609375;	409,0;	0,0;	0,0
758,8128662109375;	386,0;	0,0;	0,0
758,9267578125;	384,5;	0,0;	0,0
759,04052734375;	368,25;	0,0;	0,0
759,1543579101562;	395,5;	0,0;	0,0
759,2681884765625;	421,0;	0,0;	0,0
759,3819580078125;	394,0;	0,0;	0,0
759,4956665039062;	377,25;	0,0;	0,0
759,6094360351562;	401,5;	0,0;	0,0
759,72314453125;	385,25;	0,0;	0,0
759,8368530273438;	392,5;	0,0;	0,0
759,9505615234375;	373,0;	0,0;	0,0
760,064208984375;	408,5;	0,0;	0,0
760,1778564453125;	394,25;	0,0;	0,0
760,2914428710938;	380,5;	0,0;	0,0
760,4050903320312;	384,75;	0,0;	0,0
760,5186157226562;	374,5;	0,0;	0,0
760,6322021484375;	399,25;	0,0;	0,0
760,7457275390625;	375,0;	0,0;	0,0
760,8593139648438;	402,25;	0,0;	0,0
760,9727783203125;	384,25;	0,0;	0,0
761,0863037109375;	386,75;	0,0;	0,0
761,1997680664062;	400,5;	0,0;	0,0
761,313232421875;	416,0;	0,0;	0,0
761,4266357421875;	406,0;	0,0;	0,0
761,5400390625;	411,5;	0,0;	0,0
761,6534423828125;	400,25;	0,0;	0,0
761,766845703125;	414,25;	0,0;	0,0
761,880126953125;	379,5;	0,0;	0,0
761,9935302734375;	398,0;	0,0;	0,0
762,1068115234375;	422,25;	0,0;	0,0
762,2200927734375;	391,5;	0,0;	0,0
762,3333740234375;	389,0;	0,0;	0,0
762,4466552734375;	376,25;	0,0;	0,0
762,5598754882812;	405,0;	0,0;	0,0
762,673095703125;	398,0;	0,0;	0,0
762,7863159179688;	441,25;	0,0;	0,0
762,8994750976562;	430,5;	0,0;	0,0
763,0126342773438;	430,0;	0,0;	0,0
763,1257934570312;	425,0;	0,0;	0,0
763,2388916015625;	403,0;	0,0;	0,0
763,3519897460938;	422,0;	0,0;	0,0
763,465087890625;	429,75;	0,0;	0,0
763,578125;	404,0;	0,0;	0,0
763,691162109375;	425,0;	0,0;	0,0
763,80419921875;	438,5;	0,0;	0,0
763,917236328125;	430,0;	0,0;	0,0
764,0302124023438;	467,75;	0,0;	0,0
764,1431884765625;	448,5;	0,0;	0,0
764,256103515625;	460,5;	0,0;	0,0
764,3690795898438;	461,75;	0,0;	0,0
764,4819946289062;	476,5;	0,0;	0,0
764,5948486328125;	480,75;	0,0;	0,0
764,707763671875;	490,75;	0,0;	0,0
764,820556640625;	533,75;	0,0;	0,0
764,9334106445312;	534,75;	0,0;	0,0
765,0462646484375;	570,25;	0,0;	0,0
765,1590576171875;	598,75;	0,0;	0,0
765,2718505859375;	686,75;	0,0;	0,0
765,384521484375;	729,25;	0,0;	0,0
765,497314453125;	817,75;	0,0;	0,0
765,6100463867188;	979,5;	0,0;	0,0
765,7227783203125;	1218,25;	0,0;	0,0
765,8353881835938;	1603,75;	0,0;	0,0
765,9480590820312;	2295,0;	0,0;	0,0
766,0607299804688;	3634,75;	0,0;	0,0
766,17333984375;	6754,75;	0,0;	0,0
766,2859497070312;	13192,5;	0,0;	0,0
766,3984985351562;	16383,75;	0,0;	0,0
766,5111083984375;	13115,0;	0,0;	0,0
766,6236572265625;	6177,75;	0,0;	0,0
766,7361450195312;	3277,25;	0,0;	0,0
766,8486938476562;	2105,75;	0,0;	0,0
766,961181640625;	1575,75;	0,0;	0,0
767,0736694335938;	1270,5;	0,0;	0,0
767,1860961914062;	1002,75;	0,0;	0,0
767,2984619140625;	884,5;	0,0;	0,0
767,4109497070312;	778,75;	0,0;	0,0
767,5233154296875;	689,25;	0,0;	0,0
767,6357421875;	669,75;	0,0;	0,0
767,748046875;	629,75;	0,0;	0,0
767,8602905273438;	599,75;	0,0;	0,0
767,97265625;	584,75;	0,0;	0,0
768,0849609375;	564,5;	0,0;	0,0
768,1972045898438;	563,75;	0,0;	0,0
768,3094482421875;	566,75;	0,0;	0,0
768,4216918945312;	605,25;	0,0;	0,0
768,533935546875;	566,25;	0,0;	0,0
768,6461181640625;	526,75;	0,0;	0,0
768,75830078125;	613,25;	0,0;	0,0
768,8704223632812;	619,75;	0,0;	0,0
768,9826049804688;	664,0;	0,0;	0,0
769,0947265625;	784,5;	0,0;	0,0
769,2068481445312;	921,25;	0,0;	0,0
769,3189086914062;	1165,0;	0,0;	0,0
769,4309692382812;	1822,75;	0,0;	0,0
769,5430297851562;	3190,0;	0,0;	0,0
769,655029296875;	7182,75;	0,0;	0,0
769,7670288085938;	14412,5;	0,0;	0,0
769,8790283203125;	12520,5;	0,0;	0,0
769,990966796875;	5055,25;	0,0;	0,0
770,1029663085938;	2341,5;	0,0;	0,0
770,2149047851562;	1484,75;	0,0;	0,0
770,3267822265625;	1052,25;	0,0;	0,0
770,4385986328125;	911,75;	0,0;	0,0
770,5504760742188;	757,5;	0,0;	0,0
770,662353515625;	653,75;	0,0;	0,0
770,7742309570312;	631,75;	0,0;	0,0
770,8860473632812;	557,0;	0,0;	0,0
770,997802734375;	545,25;	0,0;	0,0
771,1095581054688;	504,75;	0,0;	0,0
771,2213134765625;	479,75;	0,0;	0,0
771,3330078125;	481,25;	0,0;	0,0
771,4447631835938;	431,0;	0,0;	0,0
771,5564575195312;	447,0;	0,0;	0,0
771,6680908203125;	462,25;	0,0;	0,0
771,77978515625;	425,75;	0,0;	0,0
771,8914184570312;	415,5;	0,0;	0,0
772,0030517578125;	427,5;	0,0;	0,0
772,1146240234375;	431,0;	0,0;	0,0
772,2261962890625;	435,5;	0,0;	0,0
772,3377685546875;	427,25;	0,0;	0,0
772,4492797851562;	420,25;	0,0;	0,0
772,5608520507812;	403,75;	0,0;	0,0
772,6722412109375;	423,5;	0,0;	0,0
772,78369140625;	399,75;	0,0;	0,0
772,8952026367188;	408,5;	0,0;	0,0
773,0066528320312;	378,5;	0,0;	0,0
773,1181030273438;	406,25;	0,0;	0,0
773,2294921875;	410,75;	0,0;	0,0
773,3408203125;	408,25;	0,0;	0,0
773,4522094726562;	392,25;	0,0;	0,0
773,5635986328125;	392,75;	0,0;	0,0
773,6748657226562;	386,0;	0,0;	0,0
773,7861938476562;	379,75;	0,0;	0,0
773,8974609375;	398,0;	0,0;	0,0
774,0087280273438;	351,0;	0,0;	0,0
774,1199340820312;	407,75;	0,0;	0,0
774,231201171875;	363,0;	0,0;	0,0
774,3424072265625;	374,25;	0,0;	0,0
774,45361328125;	379,0;	0,0;	0,0
774,5647583007812;	403,0;	0,0;	0,0
774,6759033203125;	425,75;	0,0;	0,0
774,7870483398438;	446,0;	0,0;	0,0
774,8981323242188;	346,5;	0,0;	0,0
775,0092163085938;	392,5;	0,0;	0,0
775,1203002929688;	395,0;	0,0;	0,0
775,2313232421875;	355,25;	0,0;	0,0
775,3423461914062;	392,5;	0,0;	0,0
775,453369140625;	372,75;	0,0;	0,0
775,5643920898438;	356,25;	0,0;	0,0
775,6753540039062;	389,5;	0,0;	0,0
775,7863159179688;	375,0;	0,0;	0,0
775,897216796875;	400,75;	0,0;	0,0
776,0081176757812;	384,75;	0,0;	0,0
776,1190185546875;	424,5;	0,0;	0,0
776,2298583984375;	378,25;	0,0;	0,0
776,3407592773438;	451,0;	0,0;	0,0
776,4515991210938;	421,75;	0,0;	0,0
776,5623779296875;	465,75;	0,0;	0,0
776,6732177734375;	506,75;	0,0;	0,0
776,7839965820312;	660,5;	0,0;	0,0
776,8947143554688;	958,0;	0,0;	0,0
777,0054931640625;	1818,75;	0,0;	0,0
777,1161499023438;	3256,25;	0,0;	0,0
777,2269287109375;	2726,75;	0,0;	0,0
777,3375854492188;	3027,25;	0,0;	0,0
777,4481201171875;	2500,5;	0,0;	0,0
777,558837890625;	1504,75;	0,0;	0,0
777,6693725585938;	721,0;	0,0;	0,0
777,7799682617188;	543,75;	0,0;	0,0
777,890625;	502,0;	0,0;	0,0
778,0011596679688;	538,75;	0,0;	0,0
778,1116943359375;	427,75;	0,0;	0,0
778,2222290039062;	401,0;	0,0;	0,0
778,3327026367188;	394,25;	0,0;	0,0
778,4431762695312;	408,5;	0,0;	0,0
778,5536499023438;	368,25;	0,0;	0,0
778,6640625;	356,25;	0,0;	0,0
778,7744750976562;	397,0;	0,0;	0,0
778,8848876953125;	367,5;	0,0;	0,0
778,9953002929688;	358,25;	0,0;	0,0
779,1056518554688;	355,0;	0,0;	0,0
779,2160034179688;	375,5;	0,0;	0,0
779,3263549804688;	363,0;	0,0;	0,0
779,4365844726562;	342,75;	0,0;	0,0
779,546875;	366,0;	0,0;	0,0
779,6571655273438;	408,0;	0,0;	0,0
779,7673950195312;	447,25;	0,0;	0,0
779,8776245117188;	837,0;	0,0;	0,0
779,9878540039062;	957,75;	0,0;	0,0
780,0980224609375;	414,5;	0,0;	0,0
780,2081909179688;	357,5;	0,0;	0,0
780,3182983398438;	354,0;	0,0;	0,0
780,428466796875;	366,0;	0,0;	0,0
780,53857421875;	373,75;	0,0;	0,0
780,6486206054688;	336,75;	0,0;	0,0
780,7587280273438;	348,25;	0,0;	0,0
780,8687744140625;	351,5;	0,0;	0,0
780,978759765625;	353,5;	0,0;	0,0
781,0888061523438;	373,75;	0,0;	0,0
781,1987915039062;	380,25;	0,0;	0,0
781,3087768554688;	334,0;	0,0;	0,0
781,418701171875;	347,75;	0,0;	0,0
781,5286254882812;	332,75;	0,0;	0,0
781,6385498046875;	342,75;	0,0;	0,0
781,7484741210938;	339,5;	0,0;	0,0
781,8583374023438;	351,0;	0,0;	0,0
781,9681396484375;	359,25;	0,0;	0,0
782,0780029296875;	361,75;	0,0;	0,0
782,187744140625;	333,25;	0,0;	0,0
782,2975463867188;	366,75;	0,0;	0,0
782,4072875976562;	345,0;	0,0;	0,0
782,51708984375;	353,0;	0,0;	0,0
782,6267700195312;	332,25;	0,0;	0,0
782,7365112304688;	348,0;	0,0;	0,0
782,84619140625;	321,25;	0,0;	0,0
782,955810546875;	341,5;	0,0;	0,0
783,0654907226562;	382,0;	0,0;	0,0
783,1751098632812;	431,5;	0,0;	0,0
783,2847290039062;	340,5;	0,0;	0,0
783,394287109375;	354,5;	0,0;	0,0
783,50390625;	330,25;	0,0;	0,0
783,6134643554688;	344,0;	0,0;	0,0
783,7229614257812;	347,25;	0,0;	0,0
783,83251953125;	352,75;	0,0;	0,0
783,9420166015625;	338,25;	0,0;	0,0
784,0514526367188;	323,0;	0,0;	0,0
784,1609497070312;	337,5;	0,0;	0,0
784,2703247070312;	341,0;	0,0;	0,0
784,3797607421875;	316,25;	0,0;	0,0
784,4891967773438;	344,5;	0,0;	0,0
784,5985717773438;	340,5;	0,0;	0,0
784,7078857421875;	323,25;	0,0;	0,0
784,8172607421875;	327,0;	0,0;	0,0
784,9265747070312;	328,5;	0,0;	0,0
785,0358276367188;	338,25;	0,0;	0,0
785,1451416015625;	342,75;	0,0;	0,0
785,2543334960938;	335,5;	0,0;	0,0
785,3636474609375;	318,0;	0,0;	0,0
785,4728393554688;	305,75;	0,0;	0,0
785,58203125;	322,0;	0,0;	0,0
785,691162109375;	321,75;	0,0;	0,0
785,80029296875;	347,25;	0,0;	0,0
785,9094848632812;	322,0;	0,0;	0,0
786,0186157226562;	346,25;	0,0;	0,0
786,127685546875;	324,0;	0,0;	0,0
786,23681640625;	316,25;	0,0;	0,0
786,3458251953125;	322,5;	0,0;	0,0
786,454833984375;	319,5;	0,0;	0,0
786,5638427734375;	318,5;	0,0;	0,0
786,6727905273438;	307,5;	0,0;	0,0
786,7817993164062;	319,5;	0,0;	0,0
786,8907470703125;	328,75;	0,0;	0,0
786,999755859375;	325,25;	0,0;	0,0
787,108642578125;	346,75;	0,0;	0,0
787,217529296875;	308,25;	0,0;	0,0
787,326416015625;	333,75;	0,0;	0,0
787,4352416992188;	329,75;	0,0;	0,0
787,5440063476562;	319,0;	0,0;	0,0
787,65283203125;	315,75;	0,0;	0,0
787,7616577148438;	312,5;	0,0;	0,0
787,8704223632812;	311,75;	0,0;	0,0
787,979248046875;	328,25;	0,0;	0,0
788,0879516601562;	325,0;	0,0;	0,0
788,1966552734375;	309,25;	0,0;	0,0
788,3053588867188;	309,75;	0,0;	0,0
788,4140625;	315,25;	0,0;	0,0
788,522705078125;	334,5;	0,0;	0,0
788,63134765625;	340,5;	0,0;	0,0
788,7399291992188;	342,0;	0,0;	0,0
788,8485717773438;	345,25;	0,0;	0,0
788,9571533203125;	324,0;	0,0;	0,0
789,065673828125;	310,75;	0,0;	0,0
789,1741943359375;	332,75;	0,0;	0,0
789,28271484375;	319,5;	0,0;	0,0
789,3912353515625;	327,0;	0,0;	0,0
789,499755859375;	316,5;	0,0;	0,0
789,608154296875;	354,25;	0,0;	0,0
789,7166137695312;	315,25;	0,0;	0,0
789,8250732421875;	349,75;	0,0;	0,0
789,9334106445312;	360,5;	0,0;	0,0
790,0418090820312;	340,75;	0,0;	0,0
790,150146484375;	338,5;	0,0;	0,0
790,2584838867188;	348,0;	0,0;	0,0
790,3667602539062;	330,25;	0,0;	0,0
790,4751586914062;	321,25;	0,0;	0,0
790,5833740234375;	333,25;	0,0;	0,0
790,691650390625;	335,25;	0,0;	0,0
790,7998657226562;	325,5;	0,0;	0,0
790,9081420898438;	337,0;	0,0;	0,0
791,0162963867188;	305,5;	0,0;	0,0
791,1244506835938;	334,5;	0,0;	0,0
791,2326049804688;	326,0;	0,0;	0,0
791,3406982421875;	307,25;	0,0;	0,0
791,4488525390625;	343,0;	0,0;	0,0
791,5569458007812;	331,25;	0,0;	0,0
791,6650390625;	317,25;	0,0;	0,0
791,7730102539062;	335,0;	0,0;	0,0
791,881103515625;	309,5;	0,0;	0,0
791,9890747070312;	318,0;	0,0;	0,0
792,0971069335938;	316,5;	0,0;	0,0
792,205078125;	335,5;	0,0;	0,0
792,31298828125;	303,0;	0,0;	0,0
792,4209594726562;	324,25;	0,0;	0,0
792,5288696289062;	335,5;	0,0;	0,0
792,6367797851562;	325,25;	0,0;	0,0
792,74462890625;	309,25;	0,0;	0,0
792,8524780273438;	323,0;	0,0;	0,0
792,9603271484375;	306,5;	0,0;	0,0
793,068115234375;	336,75;	0,0;	0,0
793,1759033203125;	313,0;	0,0;	0,0
793,2837524414062;	330,5;	0,0;	0,0
793,3914794921875;	314,0;	0,0;	0,0
793,4992065429688;	348,75;	0,0;	0,0
793,60693359375;	421,75;	0,0;	0,0
793,714599609375;	409,0;	0,0;	0,0
793,822265625;	327,25;	0,0;	0,0
793,9299926757812;	320,5;	0,0;	0,0
794,03759765625;	343,75;	0,0;	0,0
794,1452026367188;	355,75;	0,0;	0,0
794,2528076171875;	346,0;	0,0;	0,0
794,3603515625;	359,5;	0,0;	0,0
794,4678955078125;	461,25;	0,0;	0,0
794,575439453125;	627,75;	0,0;	0,0
794,6829833984375;	898,75;	0,0;	0,0
794,7904663085938;	539,0;	0,0;	0,0
794,89794921875;	403,75;	0,0;	0,0
795,00537109375;	433,5;	0,0;	0,0
795,11279296875;	419,75;	0,0;	0,0
795,2202758789062;	376,25;	0,0;	0,0
795,3275756835938;	339,0;	0,0;	0,0
795,4349975585938;	305,25;	0,0;	0,0
795,5422973632812;	336,75;	0,0;	0,0
795,649658203125;	307,75;	0,0;	0,0
795,7569580078125;	328,0;	0,0;	0,0
795,8642578125;	323,0;	0,0;	0,0
795,9714965820312;	321,5;	0,0;	0,0
796,0787963867188;	320,75;	0,0;	0,0
796,1859741210938;	327,25;	0,0;	0,0
796,293212890625;	303,5;	0,0;	0,0
796,400390625;	324,0;	0,0;	0,0
796,507568359375;	312,25;	0,0;	0,0
796,6146850585938;	341,25;	0,0;	0,0
796,7218017578125;	328,5;	0,0;	0,0
796,8289794921875;	311,25;	0,0;	0,0
796,93603515625;	335,0;	0,0;	0,0
797,0430908203125;	315,5;	0,0;	0,0
797,150146484375;	301,5;	0,0;	0,0
797,2572021484375;	299,75;	0,0;	0,0
797,3641967773438;	308,5;	0,0;	0,0
797,47119140625;	312,0;	0,0;	0,0
797,578125;	287,25;	0,0;	0,0
797,68505859375;	314,25;	0,0;	0,0
797,7919921875;	309,25;	0,0;	0,0
797,89892578125;	294,25;	0,0;	0,0
798,0057983398438;	301,0;	0,0;	0,0
798,1126708984375;	310,5;	0,0;	0,0
798,219482421875;	301,0;	0,0;	0,0
798,3263549804688;	313,5;	0,0;	0,0
798,4331665039062;	299,0;	0,0;	0,0
798,5399169921875;	298,5;	0,0;	0,0
798,646728515625;	309,75;	0,0;	0,0
798,75341796875;	292,0;	0,0;	0,0
798,8601684570312;	290,75;	0,0;	0,0
798,9668579101562;	309,0;	0,0;	0,0
799,0735473632812;	307,25;	0,0;	0,0
799,18017578125;	285,75;	0,0;	0,0
799,2868041992188;	297,5;	0,0;	0,0
799,3934936523438;	313,75;	0,0;	0,0
799,5000610351562;	299,0;	0,0;	0,0
799,6066284179688;	310,0;	0,0;	0,0
799,7131958007812;	351,75;	0,0;	0,0
799,8197631835938;	395,25;	0,0;	0,0
799,9263305664062;	335,25;	0,0;	0,0
800,0327758789062;	300,0;	0,0;	0,0
800,1392822265625;	296,5;	0,0;	0,0
800,2457275390625;	311,75;	0,0;	0,0
800,3521728515625;	319,5;	0,0;	0,0
800,4586181640625;	305,0;	0,0;	0,0
800,56494140625;	299,5;	0,0;	0,0
800,67138671875;	310,25;	0,0;	0,0
800,7776489257812;	302,25;	0,0;	0,0
800,884033203125;	295,25;	0,0;	0,0
800,9902954101562;	303,5;	0,0;	0,0
801,0966186523438;	304,75;	0,0;	0,0
801,202880859375;	289,5;	0,0;	0,0
801,3091430664062;	295,0;	0,0;	0,0
801,4154052734375;	288,5;	0,0;	0,0
801,5216064453125;	295,75;	0,0;	0,0
801,6278076171875;	268,25;	0,0;	0,0
801,7339477539062;	298,25;	0,0;	0,0
801,8401489257812;	289,0;	0,0;	0,0
801,9462280273438;	287,25;	0,0;	0,0
802,0523681640625;	305,75;	0,0;	0,0
802,158447265625;	308,5;	0,0;	0,0
802,2645263671875;	299,5;	0,0;	0,0
802,37060546875;	306,0;	0,0;	0,0
802,4766235351562;	307,0;	0,0;	0,0
802,5826416015625;	299,25;	0,0;	0,0
802,6885986328125;	310,25;	0,0;	0,0
802,7945556640625;	294,25;	0,0;	0,0
802,9005737304688;	286,5;	0,0;	0,0
803,0065307617188;	291,0;	0,0;	0,0
803,1124267578125;	303,5;	0,0;	0,0
803,2183227539062;	312,0;	0,0;	0,0
803,3241577148438;	296,0;	0,0;	0,0
803,4299926757812;	296,25;	0,0;	0,0
803,5358276367188;	285,0;	0,0;	0,0
803,6416015625;	296,25;	0,0;	0,0
803,7474365234375;	288,5;	0,0;	0,0
803,8532104492188;	309,5;	0,0;	0,0
803,9589233398438;	285,5;	0,0;	0,0
804,0646362304688;	277,0;	0,0;	0,0
804,17041015625;	308,0;	0,0;	0,0
804,2760009765625;	312,75;	0,0;	0,0
804,3817138671875;	316,25;	0,0;	0,0
804,4873657226562;	347,25;	0,0;	0,0
804,5929565429688;	338,0;	0,0;	0,0
804,6985473632812;	310,0;	0,0;	0,0
804,80419921875;	295,25;	0,0;	0,0
804,9097290039062;	279,0;	0,0;	0,0
805,0153198242188;	284,5;	0,0;	0,0
805,1207275390625;	300,5;	0,0;	0,0
805,226318359375;	312,0;	0,0;	0,0
805,3316650390625;	285,5;	0,0;	0,0
805,437255859375;	289,0;	0,0;	0,0
805,5426635742188;	283,25;	0,0;	0,0
805,6481323242188;	308,75;	0,0;	0,0
805,75341796875;	289,0;	0,0;	0,0
805,8588256835938;	270,75;	0,0;	0,0
805,9641723632812;	294,5;	0,0;	0,0
806,0695190429688;	292,0;	0,0;	0,0
806,1748657226562;	322,25;	0,0;	0,0
806,2801513671875;	291,0;	0,0;	0,0
806,3853759765625;	285,25;	0,0;	0,0
806,4906005859375;	273,25;	0,0;	0,0
806,5958862304688;	304,5;	0,0;	0,0
806,7011108398438;	295,5;	0,0;	0,0
806,8062744140625;	293,5;	0,0;	0,0
806,9114379882812;	281,0;	0,0;	0,0
807,0166625976562;	282,5;	0,0;	0,0
807,1217041015625;	312,75;	0,0;	0,0
807,2268676757812;	312,75;	0,0;	0,0
807,3319091796875;	287,25;	0,0;	0,0
807,43701171875;	297,0;	0,0;	0,0
807,5420532226562;	300,75;	0,0;	0,0
807,6470947265625;	299,75;	0,0;	0,0
807,7521362304688;	275,25;	0,0;	0,0
807,8571166992188;	280,5;	0,0;	0,0
807,9620361328125;	296,5;	0,0;	0,0
808,0669555664062;	299,75;	0,0;	0,0
808,1719360351562;	296,25;	0,0;	0,0
808,27685546875;	290,5;	0,0;	0,0
808,3817138671875;	323,75;	0,0;	0,0
808,486572265625;	309,25;	0,0;	0,0
808,5914306640625;	306,25;	0,0;	0,0
808,6962890625;	269,5;	0,0;	0,0
808,8010864257812;	274,75;	0,0;	0,0
808,9058837890625;	304,25;	0,0;	0,0
809,0105590820312;	302,0;	0,0;	0,0
809,1152954101562;	310,0;	0,0;	0,0
809,2200317382812;	305,25;	0,0;	0,0
809,3247680664062;	275,75;	0,0;	0,0
809,4293823242188;	304,5;	0,0;	0,0
809,5341186523438;	275,0;	0,0;	0,0
809,6386108398438;	289,0;	0,0;	0,0
809,7433471679688;	290,0;	0,0;	0,0
809,847900390625;	289,75;	0,0;	0,0
809,9525146484375;	290,25;	0,0;	0,0
810,0570068359375;	304,5;	0,0;	0,0
810,16162109375;	284,5;	0,0;	0,0
810,2660522460938;	303,5;	0,0;	0,0
810,3705444335938;	294,25;	0,0;	0,0
810,4750366210938;	277,0;	0,0;	0,0
810,5794677734375;	309,75;	0,0;	0,0
810,6838989257812;	302,75;	0,0;	0,0
810,7882690429688;	309,75;	0,0;	0,0
810,8927001953125;	281,0;	0,0;	0,0
810,9970703125;	286,5;	0,0;	0,0
811,1013793945312;	297,25;	0,0;	0,0
811,2057495117188;	286,75;	0,0;	0,0
811,31005859375;	299,25;	0,0;	0,0
811,414306640625;	310,0;	0,0;	0,0
811,5186157226562;	322,75;	0,0;	0,0
811,6228637695312;	298,0;	0,0;	0,0
811,7271118164062;	291,25;	0,0;	0,0
811,8312377929688;	284,5;	0,0;	0,0
811,9354858398438;	287,0;	0,0;	0,0
812,0396118164062;	279,25;	0,0;	0,0
812,1437377929688;	286,0;	0,0;	0,0
812,2478637695312;	297,5;	0,0;	0,0
812,3519897460938;	283,25;	0,0;	0,0
812,4560546875;	298,5;	0,0;	0,0
812,5601196289062;	314,0;	0,0;	0,0
812,6641235351562;	308,0;	0,0;	0,0
812,7681884765625;	298,25;	0,0;	0,0
812,8721313476562;	295,5;	0,0;	0,0
812,9761352539062;	313,25;	0,0;	0,0
813,0801391601562;	311,0;	0,0;	0,0
813,1840209960938;	295,0;	0,0;	0,0
813,2879638671875;	297,5;	0,0;	0,0
813,391845703125;	315,25;	0,0;	0,0
813,4957275390625;	282,0;	0,0;	0,0
813,5995483398438;	283,0;	0,0;	0,0
813,703369140625;	285,5;	0,0;	0,0
813,8071899414062;	284,75;	0,0;	0,0
813,9110107421875;	259,5;	0,0;	0,0
814,0147094726562;	292,5;	0,0;	0,0
814,118408203125;	271,5;	0,0;	0,0
814,2222290039062;	299,75;	0,0;	0,0
814,3258666992188;	287,75;	0,0;	0,0
814,4295654296875;	290,25;	0,0;	0,0
814,533203125;	287,25;	0,0;	0,0
814,6369018554688;	298,75;	0,0;	0,0
814,740478515625;	296,25;	0,0;	0,0
814,8440551757812;	284,25;	0,0;	0,0
814,9476928710938;	300,5;	0,0;	0,0
815,0512084960938;	285,0;	0,0;	0,0
815,15478515625;	285,25;	0,0;	0,0
815,25830078125;	298,5;	0,0;	0,0
815,3617553710938;	297,5;	0,0;	0,0
815,4652099609375;	307,25;	0,0;	0,0
815,5686645507812;	309,0;	0,0;	0,0
815,6721801757812;	296,5;	0,0;	0,0
815,7755737304688;	300,75;	0,0;	0,0
815,8789672851562;	296,25;	0,0;	0,0
815,9823608398438;	286,0;	0,0;	0,0
816,085693359375;	279,0;	0,0;	0,0
816,18896484375;	264,25;	0,0;	0,0
816,2922973632812;	274,75;	0,0;	0,0
816,3955688476562;	291,5;	0,0;	0,0
816,4989013671875;	303,5;	0,0;	0,0
816,6021118164062;	286,5;	0,0;	0,0
816,705322265625;	302,0;	0,0;	0,0
816,8085327148438;	289,25;	0,0;	0,0
816,9117431640625;	290,75;	0,0;	0,0
817,014892578125;	327,75;	0,0;	0,0
817,1180419921875;	304,75;	0,0;	0,0
817,22119140625;	287,5;	0,0;	0,0
817,32421875;	287,5;	0,0;	0,0
817,4273681640625;	326,75;	0,0;	0,0
817,5303955078125;	328,75;	0,0;	0,0
817,6334228515625;	336,25;	0,0;	0,0
817,7365112304688;	335,75;	0,0;	0,0
817,8394775390625;	393,25;	0,0;	0,0
817,9424438476562;	431,75;	0,0;	0,0
818,04541015625;	628,25;	0,0;	0,0
818,1483154296875;	1374,5;	0,0;	0,0
818,251220703125;	2878,25;	0,0;	0,0
818,3541259765625;	1480,0;	0,0;	0,0
818,45703125;	946,75;	0,0;	0,0
818,5598754882812;	709,0;	0,0;	0,0
818,6627197265625;	754,25;	0,0;	0,0
818,7654418945312;	894,0;	0,0;	0,0
818,8682861328125;	635,5;	0,0;	0,0
818,9710083007812;	492,25;	0,0;	0,0
819,0737915039062;	500,0;	0,0;	0,0
819,1764526367188;	718,5;	0,0;	0,0
819,2791137695312;	1512,0;	0,0;	0,0
819,3818359375;	3797,25;	0,0;	0,0
819,4844970703125;	2271,5;	0,0;	0,0
819,587158203125;	684,5;	0,0;	0,0
819,6897583007812;	447,75;	0,0;	0,0
819,7923583984375;	410,5;	0,0;	0,0
819,8949584960938;	461,0;	0,0;	0,0
819,9974975585938;	415,75;	0,0;	0,0
820,1000366210938;	342,25;	0,0;	0,0
820,2025146484375;	335,25;	0,0;	0,0
820,3050537109375;	315,25;	0,0;	0,0
820,4075317382812;	327,0;	0,0;	0,0
820,5099487304688;	332,25;	0,0;	0,0
820,6123657226562;	359,5;	0,0;	0,0
820,7147827148438;	356,5;	0,0;	0,0
820,8171997070312;	364,5;	0,0;	0,0
820,9196166992188;	446,5;	0,0;	0,0
821,0219116210938;	566,0;	0,0;	0,0
821,1242065429688;	478,25;	0,0;	0,0
821,2265625;	465,75;	0,0;	0,0
821,3287963867188;	544,75;	0,0;	0,0
821,4310913085938;	791,75;	0,0;	0,0
821,5333251953125;	1339,5;	0,0;	0,0
821,6355590820312;	1183,5;	0,0;	0,0
821,7377319335938;	713,75;	0,0;	0,0
821,8399658203125;	550,25;	0,0;	0,0
821,9420776367188;	609,25;	0,0;	0,0
822,044189453125;	574,75;	0,0;	0,0
822,1463623046875;	669,25;	0,0;	0,0
822,2484741210938;	880,75;	0,0;	0,0
822,3505249023438;	653,0;	0,0;	0,0
822,4525756835938;	418,5;	0,0;	0,0
822,5546264648438;	346,25;	0,0;	0,0
822,6566162109375;	316,5;	0,0;	0,0
822,7586059570312;	340,75;	0,0;	0,0
822,860595703125;	348,0;	0,0;	0,0
822,9625244140625;	351,25;	0,0;	0,0
823,064453125;	343,0;	0,0;	0,0
823,166259765625;	338,75;	0,0;	0,0
823,2682495117188;	351,25;	0,0;	0,0
823,3700561523438;	344,0;	0,0;	0,0
823,471923828125;	337,5;	0,0;	0,0
823,57373046875;	322,0;	0,0;	0,0
823,6754760742188;	291,25;	0,0;	0,0
823,7772827148438;	329,5;	0,0;	0,0
823,8790283203125;	370,5;	0,0;	0,0
823,9807739257812;	396,75;	0,0;	0,0
824,08251953125;	533,0;	0,0;	0,0
824,1842041015625;	760,0;	0,0;	0,0
824,285888671875;	571,75;	0,0;	0,0
824,3875122070312;	394,75;	0,0;	0,0
824,4891357421875;	323,25;	0,0;	0,0
824,5908203125;	317,0;	0,0;	0,0
824,6923828125;	289,0;	0,0;	0,0
824,7938842773438;	276,25;	0,0;	0,0
824,8954467773438;	296,25;	0,0;	0,0
824,9969482421875;	270,5;	0,0;	0,0
825,0985107421875;	294,5;	0,0;	0,0
825,2000122070312;	284,0;	0,0;	0,0
825,3014526367188;	276,0;	0,0;	0,0
825,4028930664062;	282,0;	0,0;	0,0
825,5043334960938;	247,75;	0,0;	0,0
825,6056518554688;	291,75;	0,0;	0,0
825,7070922851562;	262,5;	0,0;	0,0
825,8084106445312;	253,5;	0,0;	0,0
825,9097900390625;	269,5;	0,0;	0,0
826,0110473632812;	279,75;	0,0;	0,0
826,1124267578125;	301,25;	0,0;	0,0
826,2136840820312;	285,25;	0,0;	0,0
826,3148803710938;	275,25;	0,0;	0,0
826,4161376953125;	301,25;	0,0;	0,0
826,517333984375;	273,75;	0,0;	0,0
826,6185302734375;	296,0;	0,0;	0,0
826,7197265625;	296,5;	0,0;	0,0
826,82080078125;	266,0;	0,0;	0,0
826,9219360351562;	275,0;	0,0;	0,0
827,0230712890625;	261,75;	0,0;	0,0
827,1241455078125;	268,5;	0,0;	0,0
827,2252197265625;	284,25;	0,0;	0,0
827,3262939453125;	282,0;	0,0;	0,0
827,42724609375;	259,5;	0,0;	0,0
827,5281982421875;	285,25;	0,0;	0,0
827,6292114257812;	261,25;	0,0;	0,0
827,7301635742188;	265,0;	0,0;	0,0
827,8311157226562;	247,0;	0,0;	0,0
827,9320068359375;	270,25;	0,0;	0,0
828,0328369140625;	269,5;	0,0;	0,0
828,1337890625;	283,5;	0,0;	0,0
828,234619140625;	268,5;	0,0;	0,0
828,3353881835938;	280,0;	0,0;	0,0
828,4362182617188;	285,0;	0,0;	0,0
828,5369873046875;	266,25;	0,0;	0,0
828,6377563476562;	276,75;	0,0;	0,0
828,7384643554688;	286,25;	0,0;	0,0
828,8392333984375;	286,5;	0,0;	0,0
828,93994140625;	252,0;	0,0;	0,0
829,0405883789062;	267,0;	0,0;	0,0
829,1412963867188;	297,75;	0,0;	0,0
829,241943359375;	277,5;	0,0;	0,0
829,3424682617188;	294,25;	0,0;	0,0
829,443115234375;	270,5;	0,0;	0,0
829,543701171875;	280,0;	0,0;	0,0
829,6442260742188;	271,75;	0,0;	0,0
829,7447509765625;	271,75;	0,0;	0,0
829,8452758789062;	268,5;	0,0;	0,0
829,94580078125;	296,25;	0,0;	0,0
830,0462036132812;	279,5;	0,0;	0,0
830,1466674804688;	280,75;	0,0;	0,0
830,2470703125;	282,25;	0,0;	0,0
830,3475341796875;	282,25;	0,0;	0,0
830,4478759765625;	280,0;	0,0;	0,0
830,5482177734375;	288,25;	0,0;	0,0
830,6485595703125;	276,25;	0,0;	0,0
830,7489013671875;	262,0;	0,0;	0,0
830,8491821289062;	268,0;	0,0;	0,0
830,949462890625;	279,5;	0,0;	0,0
831,0497436523438;	260,0;	0,0;	0,0
831,14990234375;	265,0;	0,0;	0,0
831,2501220703125;	280,5;	0,0;	0,0
831,350341796875;	268,5;	0,0;	0,0
831,4505004882812;	257,25;	0,0;	0,0
831,5506591796875;	282,5;	0,0;	0,0
831,6507568359375;	259,5;	0,0;	0,0
831,7508544921875;	282,25;	0,0;	0,0
831,8508911132812;	251,25;	0,0;	0,0
831,9510498046875;	287,5;	0,0;	0,0
832,051025390625;	270,25;	0,0;	0,0
832,1510620117188;	270,25;	0,0;	0,0
832,2509765625;	271,5;	0,0;	0,0
832,3509521484375;	279,5;	0,0;	0,0
832,4509887695312;	289,75;	0,0;	0,0
832,5509033203125;	389,0;	0,0;	0,0
832,6508178710938;	426,0;	0,0;	0,0
832,7506103515625;	290,75;	0,0;	0,0
832,8505249023438;	286,75;	0,0;	0,0
832,9503784179688;	286,75;	0,0;	0,0
833,0502319335938;	306,5;	0,0;	0,0
833,1500244140625;	298,0;	0,0;	0,0
833,249755859375;	278,75;	0,0;	0,0
833,3495483398438;	270,75;	0,0;	0,0
833,4492797851562;	259,75;	0,0;	0,0
833,5490112304688;	272,25;	0,0;	0,0
833,648681640625;	283,5;	0,0;	0,0
833,7484130859375;	277,75;	0,0;	0,0
833,8480224609375;	296,75;	0,0;	0,0
833,9476318359375;	305,75;	0,0;	0,0
834,0473022460938;	283,0;	0,0;	0,0
834,1468505859375;	287,75;	0,0;	0,0
834,2464599609375;	275,75;	0,0;	0,0
834,3460083007812;	287,75;	0,0;	0,0
834,4454956054688;	256,75;	0,0;	0,0
834,5450439453125;	272,0;	0,0;	0,0
834,64453125;	263,25;	0,0;	0,0
834,7439575195312;	278,25;	0,0;	0,0
834,8433837890625;	280,25;	0,0;	0,0
834,9428100585938;	260,75;	0,0;	0,0
835,042236328125;	266,0;	0,0;	0,0
835,1415405273438;	259,0;	0,0;	0,0
835,2409057617188;	260,5;	0,0;	0,0
835,3402709960938;	287,0;	0,0;	0,0
835,4395751953125;	261,75;	0,0;	0,0
835,538818359375;	263,5;	0,0;	0,0
835,6381225585938;	264,0;	0,0;	0,0
835,7373657226562;	275,25;	0,0;	0,0
835,8366088867188;	281,5;	0,0;	0,0
835,9358520507812;	253,75;	0,0;	0,0
836,0350341796875;	289,25;	0,0;	0,0
836,1340942382812;	294,5;	0,0;	0,0
836,2332763671875;	252,0;	0,0;	0,0
836,3323364257812;	279,75;	0,0;	0,0
836,4315185546875;	284,75;	0,0;	0,0
836,530517578125;	283,0;	0,0;	0,0
836,6295776367188;	269,75;	0,0;	0,0
836,7285766601562;	246,0;	0,0;	0,0
836,82763671875;	274,25;	0,0;	0,0
836,9265747070312;	270,25;	0,0;	0,0
837,0255737304688;	277,5;	0,0;	0,0
837,1244506835938;	272,25;	0,0;	0,0
837,2234497070312;	265,5;	0,0;	0,0
837,3223266601562;	281,5;	0,0;	0,0
837,4212036132812;	285,5;	0,0;	0,0
837,5200805664062;	263,75;	0,0;	0,0
837,618896484375;	245,0;	0,0;	0,0
837,7177124023438;	271,75;	0,0;	0,0
837,8165283203125;	260,75;	0,0;	0,0
837,915283203125;	252,25;	0,0;	0,0
838,0140380859375;	244,75;	0,0;	0,0
838,11279296875;	268,0;	0,0;	0,0
838,2114868164062;	274,75;	0,0;	0,0
838,3101196289062;	253,75;	0,0;	0,0
838,4088134765625;	274,0;	0,0;	0,0
838,5075073242188;	278,25;	0,0;	0,0
838,6061401367188;	329,5;	0,0;	0,0
838,7047119140625;	397,75;	0,0;	0,0
838,8032836914062;	299,75;	0,0;	0,0
838,9017944335938;	273,0;	0,0;	0,0
839,0003662109375;	262,5;	0,0;	0,0
839,098876953125;	261,25;	0,0;	0,0
839,1973876953125;	266,25;	0,0;	0,0
839,2958374023438;	257,75;	0,0;	0,0
839,394287109375;	264,0;	0,0;	0,0
839,4927368164062;	264,75;	0,0;	0,0
839,5911254882812;	284,0;	0,0;	0,0
839,6895141601562;	247,5;	0,0;	0,0
839,787841796875;	250,25;	0,0;	0,0
839,8861694335938;	276,5;	0,0;	0,0
839,9844970703125;	246,75;	0,0;	0,0
840,0828247070312;	272,5;	0,0;	0,0
840,1810913085938;	261,75;	0,0;	0,0
840,2793579101562;	274,0;	0,0;	0,0
840,3775024414062;	271,25;	0,0;	0,0
840,475830078125;	267,75;	0,0;	0,0
840,5739135742188;	281,75;	0,0;	0,0
840,6721801757812;	273,25;	0,0;	0,0
840,770263671875;	263,5;	0,0;	0,0
840,868408203125;	260,0;	0,0;	0,0
840,9664916992188;	241,25;	0,0;	0,0
841,0645751953125;	259,25;	0,0;	0,0
841,16259765625;	261,5;	0,0;	0,0
841,2606201171875;	287,25;	0,0;	0,0
841,3587036132812;	264,5;	0,0;	0,0
841,4566650390625;	264,5;	0,0;	0,0
841,5546264648438;	263,5;	0,0;	0,0
841,652587890625;	285,25;	0,0;	0,0
841,75048828125;	262,0;	0,0;	0,0
841,8484497070312;	264,25;	0,0;	0,0
841,9463500976562;	260,25;	0,0;	0,0
842,0441284179688;	253,25;	0,0;	0,0
842,1420288085938;	275,5;	0,0;	0,0
842,2398681640625;	272,0;	0,0;	0,0
842,337646484375;	274,5;	0,0;	0,0
842,4353637695312;	276,0;	0,0;	0,0
842,533203125;	285,0;	0,0;	0,0
842,6309204101562;	273,75;	0,0;	0,0
842,7285766601562;	264,0;	0,0;	0,0
842,8263549804688;	299,75;	0,0;	0,0
842,9240112304688;	272,5;	0,0;	0,0
843,0216064453125;	273,0;	0,0;	0,0
843,1192626953125;	271,75;	0,0;	0,0
843,2168579101562;	266,0;	0,0;	0,0
843,314453125;	275,25;	0,0;	0,0
843,4120483398438;	254,75;	0,0;	0,0
843,509521484375;	277,0;	0,0;	0,0
843,6070556640625;	259,75;	0,0;	0,0
843,7045288085938;	264,0;	0,0;	0,0
843,802001953125;	275,0;	0,0;	0,0
843,8994750976562;	309,25;	0,0;	0,0
843,9968872070312;	329,0;	0,0;	0,0
844,0942993164062;	335,75;	0,0;	0,0
844,191650390625;	318,5;	0,0;	0,0
844,2890014648438;	432,0;	0,0;	0,0
844,3863525390625;	592,5;	0,0;	0,0
844,4837036132812;	877,0;	0,0;	0,0
844,5809326171875;	1130,25;	0,0;	0,0
844,6782836914062;	772,75;	0,0;	0,0
844,7754516601562;	490,5;	0,0;	0,0
844,872802734375;	399,75;	0,0;	0,0
844,9699096679688;	336,0;	0,0;	0,0
845,0671997070312;	343,5;	0,0;	0,0
845,164306640625;	303,75;	0,0;	0,0
845,2614135742188;	271,75;	0,0;	0,0
845,3585815429688;	286,25;	0,0;	0,0
845,4556884765625;	276,5;	0,0;	0,0
845,552734375;	280,75;	0,0;	0,0
845,6498413085938;	256,75;	0,0;	0,0
845,746826171875;	279,25;	0,0;	0,0
845,8438720703125;	276,0;	0,0;	0,0
845,9408569335938;	275,75;	0,0;	0,0
846,037841796875;	291,25;	0,0;	0,0
846,134765625;	261,75;	0,0;	0,0
846,231689453125;	280,0;	0,0;	0,0
846,32861328125;	271,0;	0,0;	0,0
846,4254760742188;	257,75;	0,0;	0,0
846,5223388671875;	275,5;	0,0;	0,0
846,6192016601562;	277,25;	0,0;	0,0
846,716064453125;	301,5;	0,0;	0,0
846,8128051757812;	296,5;	0,0;	0,0
846,9096069335938;	263,25;	0,0;	0,0
847,00634765625;	256,25;	0,0;	0,0
847,1030883789062;	272,0;	0,0;	0,0
847,1998291015625;	271,75;	0,0;	0,0
847,2964477539062;	258,75;	0,0;	0,0
847,3931274414062;	268,0;	0,0;	0,0
847,4898071289062;	273,0;	0,0;	0,0
847,58642578125;	263,5;	0,0;	0,0
847,6829833984375;	252,75;	0,0;	0,0
847,779541015625;	232,25;	0,0;	0,0
847,8760986328125;	283,0;	0,0;	0,0
847,97265625;	275,0;	0,0;	0,0
848,0691528320312;	270,75;	0,0;	0,0
848,1656494140625;	274,75;	0,0;	0,0
848,2621459960938;	259,0;	0,0;	0,0
848,3585815429688;	256,0;	0,0;	0,0
848,4549560546875;	267,5;	0,0;	0,0
848,5513305664062;	277,75;	0,0;	0,0
848,6478271484375;	275,25;	0,0;	0,0
848,7440795898438;	257,5;	0,0;	0,0
848,8405151367188;	284,5;	0,0;	0,0
848,936767578125;	267,75;	0,0;	0,0
849,0330810546875;	270,75;	0,0;	0,0
849,1293334960938;	278,0;	0,0;	0,0
849,2256469726562;	265,25;	0,0;	0,0
849,32177734375;	260,25;	0,0;	0,0
849,4180297851562;	250,25;	0,0;	0,0
849,51416015625;	256,75;	0,0;	0,0
849,6103515625;	299,0;	0,0;	0,0
849,7064819335938;	312,5;	0,0;	0,0
849,8026123046875;	283,0;	0,0;	0,0
849,898681640625;	267,5;	0,0;	0,0
849,9947509765625;	256,25;	0,0;	0,0
850,0908203125;	276,0;	0,0;	0,0
850,1868286132812;	254,25;	0,0;	0,0
850,2828979492188;	265,0;	0,0;	0,0
850,3788452148438;	264,75;	0,0;	0,0
850,474853515625;	250,0;	0,0;	0,0
850,5707397460938;	253,5;	0,0;	0,0
850,6666870117188;	234,0;	0,0;	0,0
850,7625732421875;	244,5;	0,0;	0,0
850,8583984375;	282,75;	0,0;	0,0
850,9542846679688;	287,5;	0,0;	0,0
851,0501098632812;	256,25;	0,0;	0,0
851,1459350585938;	292,5;	0,0;	0,0
851,24169921875;	292,25;	0,0;	0,0
851,3374633789062;	283,25;	0,0;	0,0
851,4332275390625;	258,25;	0,0;	0,0
851,5289306640625;	271,5;	0,0;	0,0
851,6246337890625;	258,25;	0,0;	0,0
851,7203369140625;	270,5;	0,0;	0,0
851,8159790039062;	279,0;	0,0;	0,0
851,91162109375;	282,0;	0,0;	0,0
852,0072631835938;	283,25;	0,0;	0,0
852,1028442382812;	272,0;	0,0;	0,0
852,1983642578125;	271,75;	0,0;	0,0
852,2939453125;	268,0;	0,0;	0,0
852,3894653320312;	267,5;	0,0;	0,0
852,4849853515625;	278,0;	0,0;	0,0
852,5804443359375;	269,5;	0,0;	0,0
852,6758422851562;	260,25;	0,0;	0,0
852,7713012695312;	265,0;	0,0;	0,0
852,86669921875;	274,25;	0,0;	0,0
852,962158203125;	237,5;	0,0;	0,0
853,0574340820312;	250,25;	0,0;	0,0
853,15283203125;	265,0;	0,0;	0,0
853,2481689453125;	257,5;	0,0;	0,0
853,343505859375;	262,0;	0,0;	0,0
853,4386596679688;	285,75;	0,0;	0,0
853,5340576171875;	264,0;	0,0;	0,0
853,6292114257812;	266,0;	0,0;	0,0
853,7244262695312;	301,75;	0,0;	0,0
853,819580078125;	280,0;	0,0;	0,0
853,9147338867188;	329,25;	0,0;	0,0
854,0098876953125;	441,5;	0,0;	0,0
854,1050415039062;	611,0;	0,0;	0,0
854,2001342773438;	440,75;	0,0;	0,0
854,2952270507812;	292,0;	0,0;	0,0
854,3903198242188;	269,5;	0,0;	0,0
854,4852905273438;	272,25;	0,0;	0,0
854,580322265625;	257,0;	0,0;	0,0
854,6753540039062;	272,25;	0,0;	0,0
854,7703247070312;	272,0;	0,0;	0,0
854,865234375;	254,75;	0,0;	0,0
854,960205078125;	261,0;	0,0;	0,0
855,0551147460938;	268,0;	0,0;	0,0
855,1499633789062;	253,5;	0,0;	0,0
855,2448120117188;	265,5;	0,0;	0,0
855,3396606445312;	255,75;	0,0;	0,0
855,4344482421875;	240,5;	0,0;	0,0
855,5292358398438;	263,0;	0,0;	0,0
855,6240234375;	260,25;	0,0;	0,0
855,7188110351562;	266,75;	0,0;	0,0
855,8135375976562;	272,75;	0,0;	0,0
855,9082641601562;	251,75;	0,0;	0,0
856,0029296875;	289,5;	0,0;	0,0
856,0975952148438;	263,5;	0,0;	0,0
856,1921997070312;	278,75;	0,0;	0,0
856,286865234375;	274,25;	0,0;	0,0
856,3814086914062;	273,25;	0,0;	0,0
856,4760131835938;	278,25;	0,0;	0,0
856,570556640625;	283,25;	0,0;	0,0
856,6651000976562;	342,75;	0,0;	0,0
856,759521484375;	326,0;	0,0;	0,0
856,8540649414062;	326,5;	0,0;	0,0
856,948486328125;	281,0;	0,0;	0,0
857,04296875;	291,5;	0,0;	0,0
857,1373291015625;	272,75;	0,0;	0,0
857,2317504882812;	273,5;	0,0;	0,0
857,3261108398438;	258,25;	0,0;	0,0
857,4204711914062;	262,0;	0,0;	0,0
857,5147705078125;	259,75;	0,0;	0,0
857,609130859375;	278,25;	0,0;	0,0
857,703369140625;	274,25;	0,0;	0,0
857,797607421875;	271,5;	0,0;	0,0
857,891845703125;	282,0;	0,0;	0,0
857,986083984375;	266,25;	0,0;	0,0
858,0802612304688;	253,5;	0,0;	0,0
858,1744384765625;	237,5;	0,0;	0,0
858,2686157226562;	281,75;	0,0;	0,0
858,3627319335938;	265,0;	0,0;	0,0
858,4568481445312;	282,0;	0,0;	0,0
858,5509033203125;	272,25;	0,0;	0,0
858,6449584960938;	256,75;	0,0;	0,0
858,739013671875;	288,25;	0,0;	0,0
858,8330078125;	288,5;	0,0;	0,0
858,927001953125;	285,0;	0,0;	0,0
859,0209350585938;	305,0;	0,0;	0,0
859,1149291992188;	298,25;	0,0;	0,0
859,2088623046875;	351,5;	0,0;	0,0
859,302734375;	425,25;	0,0;	0,0
859,3966674804688;	443,0;	0,0;	0,0
859,4905395507812;	347,0;	0,0;	0,0
859,5843505859375;	300,5;	0,0;	0,0
859,6781616210938;	294,75;	0,0;	0,0
859,77197265625;	262,5;	0,0;	0,0
859,86572265625;	290,5;	0,0;	0,0
859,95947265625;	262,5;	0,0;	0,0
860,05322265625;	273,75;	0,0;	0,0
860,1469116210938;	261,75;	0,0;	0,0
860,2406005859375;	253,25;	0,0;	0,0
860,3342895507812;	291,25;	0,0;	0,0
860,4278564453125;	275,25;	0,0;	0,0
860,521484375;	276,25;	0,0;	0,0
860,6151123046875;	259,25;	0,0;	0,0
860,7086791992188;	262,0;	0,0;	0,0
860,8021240234375;	269,5;	0,0;	0,0
860,8956909179688;	271,0;	0,0;	0,0
860,9891357421875;	284,0;	0,0;	0,0
861,0827026367188;	259,5;	0,0;	0,0
861,1760864257812;	275,0;	0,0;	0,0
861,2695922851562;	276,25;	0,0;	0,0
861,3629760742188;	257,5;	0,0;	0,0
861,4563598632812;	241,5;	0,0;	0,0
861,5497436523438;	268,25;	0,0;	0,0
861,64306640625;	265,0;	0,0;	0,0
861,7363891601562;	294,0;	0,0;	0,0
861,8296508789062;	283,25;	0,0;	0,0
861,9229736328125;	272,75;	0,0;	0,0
862,0162353515625;	268,5;	0,0;	0,0
862,1094360351562;	281,5;	0,0;	0,0
862,20263671875;	275,5;	0,0;	0,0
862,2958374023438;	272,0;	0,0;	0,0
862,3890380859375;	314,25;	0,0;	0,0
862,482177734375;	298,25;	0,0;	0,0
862,5753173828125;	349,75;	0,0;	0,0
862,6683959960938;	436,75;	0,0;	0,0
862,761474609375;	521,5;	0,0;	0,0
862,8545532226562;	630,0;	0,0;	0,0
862,9475708007812;	611,5;	0,0;	0,0
863,0405883789062;	455,75;	0,0;	0,0
863,133544921875;	388,75;	0,0;	0,0
863,2265625;	332,75;	0,0;	0,0
863,3194580078125;	300,5;	0,0;	0,0
863,412353515625;	285,75;	0,0;	0,0
863,5052490234375;	270,25;	0,0;	0,0
863,59814453125;	282,75;	0,0;	0,0
863,6909790039062;	261,25;	0,0;	0,0
863,7838134765625;	272,25;	0,0;	0,0
863,8766479492188;	278,75;	0,0;	0,0
863,9694213867188;	265,0;	0,0;	0,0
864,0621948242188;	267,25;	0,0;	0,0
864,1549072265625;	261,0;	0,0;	0,0
864,2476806640625;	280,5;	0,0;	0,0
864,34033203125;	273,25;	0,0;	0,0
864,4330444335938;	259,0;	0,0;	0,0
864,5256958007812;	264,0;	0,0;	0,0
864,6182861328125;	272,0;	0,0;	0,0
864,7109375;	289,25;	0,0;	0,0
864,803466796875;	294,0;	0,0;	0,0
864,8960571289062;	278,0;	0,0;	0,0
864,988525390625;	263,5;	0,0;	0,0
865,0811157226562;	290,5;	0,0;	0,0
865,1735229492188;	265,0;	0,0;	0,0
865,2660522460938;	294,5;	0,0;	0,0
865,3584594726562;	312,5;	0,0;	0,0
865,4509887695312;	336,75;	0,0;	0,0
865,5432739257812;	351,25;	0,0;	0,0
865,6357421875;	332,5;	0,0;	0,0
865,72802734375;	319,25;	0,0;	0,0
865,8203125;	283,75;	0,0;	0,0
865,9127197265625;	333,75;	0,0;	0,0
866,0049438476562;	394,5;	0,0;	0,0
866,0972290039062;	519,75;	0,0;	0,0
866,189453125;	436,0;	0,0;	0,0
866,2816772460938;	317,25;	0,0;	0,0
866,3739013671875;	280,75;	0,0;	0,0
866,466064453125;	290,75;	0,0;	0,0
866,5582275390625;	283,25;	0,0;	0,0
866,6503295898438;	264,5;	0,0;	0,0
866,7424926757812;	274,5;	0,0;	0,0
866,8345336914062;	288,75;	0,0;	0,0
866,9266357421875;	273,75;	0,0;	0,0
867,0186767578125;	276,0;	0,0;	0,0
867,1107177734375;	291,25;	0,0;	0,0
867,2026977539062;	309,75;	0,0;	0,0
867,294677734375;	321,75;	0,0;	0,0
867,3865966796875;	319,75;	0,0;	0,0
867,478515625;	359,0;	0,0;	0,0
867,5704345703125;	382,0;	0,0;	0,0
867,662353515625;	475,75;	0,0;	0,0
867,7542114257812;	667,25;	0,0;	0,0
867,8460693359375;	1015,25;	0,0;	0,0
867,9378662109375;	1309,5;	0,0;	0,0
868,0296630859375;	1218,0;	0,0;	0,0
868,1213989257812;	921,75;	0,0;	0,0
868,2131958007812;	1007,0;	0,0;	0,0
868,3048706054688;	956,0;	0,0;	0,0
868,3965454101562;	740,75;	0,0;	0,0
868,48828125;	675,0;	0,0;	0,0
868,5799560546875;	633,75;	0,0;	0,0
868,6715698242188;	553,5;	0,0;	0,0
868,7631225585938;	566,5;	0,0;	0,0
868,8547973632812;	454,25;	0,0;	0,0
868,9462890625;	301,5;	0,0;	0,0
869,037841796875;	268,25;	0,0;	0,0
869,1293334960938;	277,25;	0,0;	0,0
869,220947265625;	297,75;	0,0;	0,0
869,3123168945312;	285,0;	0,0;	0,0
869,4038696289062;	281,25;	0,0;	0,0
869,4951782226562;	274,0;	0,0;	0,0
869,5867309570312;	281,0;	0,0;	0,0
869,6780395507812;	301,75;	0,0;	0,0
869,7693481445312;	290,5;	0,0;	0,0
869,8607177734375;	306,5;	0,0;	0,0
869,9520263671875;	318,5;	0,0;	0,0
870,0433349609375;	364,5;	0,0;	0,0
870,1345825195312;	418,25;	0,0;	0,0
870,225830078125;	519,25;	0,0;	0,0
870,3170776367188;	496,75;	0,0;	0,0
870,4082641601562;	368,75;	0,0;	0,0
870,4994506835938;	311,75;	0,0;	0,0
870,590576171875;	314,0;	0,0;	0,0
870,6817626953125;	305,5;	0,0;	0,0
870,7728271484375;	316,25;	0,0;	0,0
870,8639526367188;	376,25;	0,0;	0,0
870,9550170898438;	455,75;	0,0;	0,0
871,0460815429688;	560,0;	0,0;	0,0
871,1370849609375;	545,75;	0,0;	0,0
871,2280883789062;	408,5;	0,0;	0,0
871,319091796875;	334,5;	0,0;	0,0
871,4100341796875;	315,75;	0,0;	0,0
871,5009155273438;	322,0;	0,0;	0,0
871,5918579101562;	339,75;	0,0;	0,0
871,6828002929688;	378,25;	0,0;	0,0
871,7736206054688;	487,25;	0,0;	0,0
871,864501953125;	429,25;	0,0;	0,0
871,9552612304688;	355,5;	0,0;	0,0
872,0460815429688;	307,75;	0,0;	0,0
872,1369018554688;	294,0;	0,0;	0,0
872,2276000976562;	255,0;	0,0;	0,0
872,318359375;	259,5;	0,0;	0,0
872,4090576171875;	257,25;	0,0;	0,0
872,4996948242188;	262,25;	0,0;	0,0
872,5903930664062;	270,0;	0,0;	0,0
872,680908203125;	309,5;	0,0;	0,0
872,7716064453125;	301,25;	0,0;	0,0
872,8621826171875;	284,5;	0,0;	0,0
872,9527587890625;	262,5;	0,0;	0,0
873,0432739257812;	247,5;	0,0;	0,0
873,1338500976562;	277,25;	0,0;	0,0
873,2243041992188;	267,5;	0,0;	0,0
873,3148193359375;	247,25;	0,0;	0,0
873,4052124023438;	249,75;	0,0;	0,0
873,4957275390625;	269,25;	0,0;	0,0
873,5860595703125;	277,5;	0,0;	0,0
873,6764526367188;	242,25;	0,0;	0,0
873,766845703125;	262,5;	0,0;	0,0
873,857177734375;	264,25;	0,0;	0,0
873,9474487304688;	253,0;	0,0;	0,0
874,0377807617188;	262,25;	0,0;	0,0
874,1279907226562;	242,5;	0,0;	0,0
874,21826171875;	266,25;	0,0;	0,0
874,3084716796875;	231,5;	0,0;	0,0
874,3987426757812;	264,5;	0,0;	0,0
874,4888916015625;	274,5;	0,0;	0,0
874,5790405273438;	274,25;	0,0;	0,0
874,669189453125;	280,0;	0,0;	0,0
874,75927734375;	285,75;	0,0;	0,0
874,849365234375;	258,25;	0,0;	0,0
874,939453125;	267,75;	0,0;	0,0
875,0294799804688;	263,0;	0,0;	0,0
875,1195068359375;	245,0;	0,0;	0,0
875,20947265625;	247,75;	0,0;	0,0
875,2994995117188;	255,0;	0,0;	0,0
875,389404296875;	267,25;	0,0;	0,0
875,4793090820312;	269,0;	0,0;	0,0
875,5692749023438;	253,0;	0,0;	0,0
875,6591186523438;	267,25;	0,0;	0,0
875,7490234375;	275,0;	0,0;	0,0
875,8388061523438;	260,0;	0,0;	0,0
875,9286499023438;	254,5;	0,0;	0,0
876,0184326171875;	255,0;	0,0;	0,0
876,1082153320312;	261,0;	0,0;	0,0
876,197998046875;	280,5;	0,0;	0,0
876,2876586914062;	241,0;	0,0;	0,0
876,3773803710938;	257,75;	0,0;	0,0
876,4671020507812;	255,0;	0,0;	0,0
876,556640625;	251,0;	0,0;	0,0
876,6463012695312;	253,25;	0,0;	0,0
876,7359008789062;	253,5;	0,0;	0,0
876,8255615234375;	265,75;	0,0;	0,0
876,9150390625;	254,0;	0,0;	0,0
877,004638671875;	240,0;	0,0;	0,0
877,0941162109375;	262,5;	0,0;	0,0
877,1836547851562;	231,75;	0,0;	0,0
877,2730712890625;	265,75;	0,0;	0,0
877,3626098632812;	281,5;	0,0;	0,0
877,451904296875;	228,0;	0,0;	0,0
877,5413208007812;	259,75;	0,0;	0,0
877,6306762695312;	254,75;	0,0;	0,0
877,7200927734375;	247,75;	0,0;	0,0
877,8093872070312;	255,75;	0,0;	0,0
877,898681640625;	263,0;	0,0;	0,0
877,988037109375;	263,75;	0,0;	0,0
878,0772705078125;	238,75;	0,0;	0,0
878,16650390625;	267,75;	0,0;	0,0
878,2557373046875;	251,75;	0,0;	0,0
878,3449096679688;	252,0;	0,0;	0,0
878,43408203125;	250,25;	0,0;	0,0
878,5232543945312;	251,75;	0,0;	0,0
878,6123657226562;	244,25;	0,0;	0,0
878,7014770507812;	248,25;	0,0;	0,0
878,7905883789062;	268,0;	0,0;	0,0
878,8795776367188;	248,5;	0,0;	0,0
878,9686279296875;	248,25;	0,0;	0,0
879,0576782226562;	244,5;	0,0;	0,0
879,1466674804688;	244,0;	0,0;	0,0
879,235595703125;	273,0;	0,0;	0,0
879,3245239257812;	255,75;	0,0;	0,0
879,4134521484375;	271,0;	0,0;	0,0
879,5023193359375;	247,75;	0,0;	0,0
879,5911865234375;	251,5;	0,0;	0,0
879,6800537109375;	258,0;	0,0;	0,0
879,7688598632812;	266,75;	0,0;	0,0
879,8577270507812;	250,0;	0,0;	0,0
879,9464721679688;	230,75;	0,0;	0,0
880,0352783203125;	251,75;	0,0;	0,0
880,1239624023438;	257,0;	0,0;	0,0
880,212646484375;	256,75;	0,0;	0,0
880,3013305664062;	248,0;	0,0;	0,0
880,3899536132812;	241,25;	0,0;	0,0
880,4786376953125;	265,75;	0,0;	0,0
880,5671997070312;	238,5;	0,0;	0,0
880,6558837890625;	258,75;	0,0;	0,0
880,7444458007812;	242,0;	0,0;	0,0
880,8330078125;	228,0;	0,0;	0,0
880,9215087890625;	239,75;	0,0;	0,0
881,010009765625;	248,25;	0,0;	0,0
881,0985107421875;	254,25;	0,0;	0,0
881,18701171875;	264,5;	0,0;	0,0
881,2753295898438;	247,5;	0,0;	0,0
881,36376953125;	229,75;	0,0;	0,0
881,4521484375;	275,0;	0,0;	0,0
881,54052734375;	260,5;	0,0;	0,0
881,6288452148438;	260,75;	0,0;	0,0
881,7171630859375;	260,75;	0,0;	0,0
881,8054809570312;	252,25;	0,0;	0,0
881,8937377929688;	279,0;	0,0;	0,0
881,9819946289062;	257,75;	0,0;	0,0
882,0701904296875;	279,75;	0,0;	0,0
882,158447265625;	292,75;	0,0;	0,0
882,24658203125;	313,0;	0,0;	0,0
882,334716796875;	335,5;	0,0;	0,0
882,4228515625;	284,75;	0,0;	0,0
882,510986328125;	264,25;	0,0;	0,0
882,5990600585938;	259,25;	0,0;	0,0
882,6871337890625;	241,0;	0,0;	0,0
882,7752075195312;	254,25;	0,0;	0,0
882,8632202148438;	242,75;	0,0;	0,0
882,951171875;	240,5;	0,0;	0,0
883,0391845703125;	248,5;	0,0;	0,0
883,1271362304688;	241,5;	0,0;	0,0
883,2150268554688;	242,0;	0,0;	0,0
883,3029174804688;	253,25;	0,0;	0,0
883,390869140625;	258,25;	0,0;	0,0
883,4786987304688;	246,75;	0,0;	0,0
883,5665283203125;	256,75;	0,0;	0,0
883,6543579101562;	253,0;	0,0;	0,0
883,7421264648438;	272,0;	0,0;	0,0
883,829833984375;	265,0;	0,0;	0,0
883,9176025390625;	258,75;	0,0;	0,0
884,0053100585938;	245,25;	0,0;	0,0
884,093017578125;	243,0;	0,0;	0,0
884,1806640625;	248,0;	0,0;	0,0
884,268310546875;	244,5;	0,0;	0,0
884,3558959960938;	252,75;	0,0;	0,0
884,4435424804688;	259,5;	0,0;	0,0
884,5310668945312;	259,0;	0,0;	0,0
884,6187133789062;	262,0;	0,0;	0,0
884,7061767578125;	249,75;	0,0;	0,0
884,7937622070312;	242,25;	0,0;	0,0
884,8811645507812;	264,25;	0,0;	0,0
884,9686889648438;	240,0;	0,0;	0,0
885,0560302734375;	243,5;	0,0;	0,0
885,1434936523438;	263,25;	0,0;	0,0
885,2308349609375;	247,0;	0,0;	0,0
885,3182373046875;	245,0;	0,0;	0,0
885,4055786132812;	262,0;	0,0;	0,0
885,4928588867188;	254,25;	0,0;	0,0
885,5801391601562;	259,5;	0,0;	0,0
885,6674194335938;	252,0;	0,0;	0,0
885,7546997070312;	257,0;	0,0;	0,0
885,8419189453125;	269,0;	0,0;	0,0
885,9291381835938;	256,5;	0,0;	0,0
886,016357421875;	241,75;	0,0;	0,0
886,103515625;	231,0;	0,0;	0,0
886,1906127929688;	245,0;	0,0;	0,0
886,2777709960938;	253,0;	0,0;	0,0
886,3648071289062;	269,25;	0,0;	0,0
886,4518432617188;	252,25;	0,0;	0,0
886,5389404296875;	286,0;	0,0;	0,0
886,6259765625;	286,5;	0,0;	0,0
886,7129516601562;	266,5;	0,0;	0,0
886,7999267578125;	253,5;	0,0;	0,0
886,8869018554688;	247,0;	0,0;	0,0
886,9737548828125;	266,0;	0,0;	0,0
887,0606689453125;	266,75;	0,0;	0,0
887,1475830078125;	261,75;	0,0;	0,0
887,2344360351562;	247,25;	0,0;	0,0
887,3212890625;	268,5;	0,0;	0,0
887,4080810546875;	257,5;	0,0;	0,0
887,4948120117188;	266,25;	0,0;	0,0
887,5816650390625;	248,75;	0,0;	0,0
887,6683959960938;	224,5;	0,0;	0,0
887,7550659179688;	234,25;	0,0;	0,0
887,841796875;	247,25;	0,0;	0,0
887,9284057617188;	254,0;	0,0;	0,0
888,0150756835938;	243,75;	0,0;	0,0
888,1016235351562;	251,25;	0,0;	0,0
888,1883544921875;	234,0;	0,0;	0,0
888,2747802734375;	248,5;	0,0;	0,0
888,3614501953125;	242,5;	0,0;	0,0
888,4478759765625;	247,75;	0,0;	0,0
888,534423828125;	225,0;	0,0;	0,0
888,620849609375;	260,0;	0,0;	0,0
888,7073974609375;	251,25;	0,0;	0,0
888,7937622070312;	254,25;	0,0;	0,0
888,8801879882812;	258,25;	0,0;	0,0
888,966552734375;	260,5;	0,0;	0,0
889,0529174804688;	247,0;	0,0;	0,0
889,1392822265625;	243,5;	0,0;	0,0
889,2255859375;	280,5;	0,0;	0,0
889,3118896484375;	243,5;	0,0;	0,0
889,398193359375;	265,75;	0,0;	0,0
889,484375;	243,5;	0,0;	0,0
889,5706787109375;	243,75;	0,0;	0,0
889,6568603515625;	250,75;	0,0;	0,0
889,7430419921875;	260,25;	0,0;	0,0
889,8291625976562;	256,25;	0,0;	0,0
889,9153442382812;	247,25;	0,0;	0,0
890,0014038085938;	225,75;	0,0;	0,0
890,0874633789062;	238,75;	0,0;	0,0
890,173583984375;	247,5;	0,0;	0,0
890,2595825195312;	243,0;	0,0;	0,0
890,3456420898438;	251,0;	0,0;	0,0
890,4315795898438;	230,25;	0,0;	0,0
890,5175170898438;	243,25;	0,0;	0,0
890,6034545898438;	254,25;	0,0;	0,0
890,689453125;	247,5;	0,0;	0,0
890,7753295898438;	235,5;	0,0;	0,0
890,8611450195312;	236,0;	0,0;	0,0
890,947021484375;	250,5;	0,0;	0,0
891,0328369140625;	242,0;	0,0;	0,0
891,1187133789062;	248,75;	0,0;	0,0
891,2044067382812;	250,25;	0,0;	0,0
891,2902221679688;	238,5;	0,0;	0,0
891,3759155273438;	252,75;	0,0;	0,0
891,4616088867188;	233,5;	0,0;	0,0
891,54736328125;	255,75;	0,0;	0,0
891,6329345703125;	251,0;	0,0;	0,0
891,7186279296875;	239,25;	0,0;	0,0
891,80419921875;	250,25;	0,0;	0,0
891,8898315429688;	249,25;	0,0;	0,0
891,975341796875;	243,25;	0,0;	0,0
892,0609130859375;	266,0;	0,0;	0,0
892,1464233398438;	246,0;	0,0;	0,0
892,23193359375;	245,0;	0,0;	0,0
892,3173828125;	237,0;	0,0;	0,0
892,4028930664062;	240,5;	0,0;	0,0
892,4882202148438;	234,5;	0,0;	0,0
892,5736083984375;	258,0;	0,0;	0,0
892,6589965820312;	249,0;	0,0;	0,0
892,744384765625;	235,5;	0,0;	0,0
892,8297119140625;	257,75;	0,0;	0,0
892,9150390625;	233,25;	0,0;	0,0
893,0003051757812;	270,0;	0,0;	0,0
893,0855712890625;	251,0;	0,0;	0,0
893,1708374023438;	252,25;	0,0;	0,0
893,2559814453125;	235,75;	0,0;	0,0
893,3412475585938;	237,0;	0,0;	0,0
893,4263916015625;	239,5;	0,0;	0,0
893,5115356445312;	245,0;	0,0;	0,0
893,5966186523438;	232,0;	0,0;	0,0
893,6817016601562;	244,25;	0,0;	0,0
893,7667846679688;	243,5;	0,0;	0,0
893,8518676757812;	244,75;	0,0;	0,0
893,9368896484375;	237,5;	0,0;	0,0
894,0218505859375;	248,5;	0,0;	0,0
894,1068725585938;	243,5;	0,0;	0,0
894,1918334960938;	243,75;	0,0;	0,0
894,2767944335938;	240,25;	0,0;	0,0
894,3616333007812;	248,25;	0,0;	0,0
894,446533203125;	260,75;	0,0;	0,0
894,5313720703125;	260,25;	0,0;	0,0
894,6162109375;	252,75;	0,0;	0,0
894,7010498046875;	246,0;	0,0;	0,0
894,7858276367188;	243,5;	0,0;	0,0
894,87060546875;	255,25;	0,0;	0,0
894,9553833007812;	230,0;	0,0;	0,0
895,0401000976562;	254,75;	0,0;	0,0
895,1248168945312;	239,0;	0,0;	0,0
895,20947265625;	231,75;	0,0;	0,0
895,2940063476562;	232,0;	0,0;	0,0
895,3787231445312;	248,0;	0,0;	0,0
895,4632568359375;	265,75;	0,0;	0,0
895,5479125976562;	251,0;	0,0;	0,0
895,6324462890625;	231,25;	0,0;	0,0
895,7169799804688;	254,0;	0,0;	0,0
895,8013916015625;	241,0;	0,0;	0,0
895,885986328125;	244,75;	0,0;	0,0
895,9703369140625;	256,5;	0,0;	0,0
896,0548706054688;	255,5;	0,0;	0,0
896,1392211914062;	269,0;	0,0;	0,0
896,2236328125;	250,0;	0,0;	0,0
896,3079833984375;	227,75;	0,0;	0,0
896,392333984375;	226,75;	0,0;	0,0
896,4766235351562;	239,25;	0,0;	0,0
896,5609130859375;	267,0;	0,0;	0,0
896,6452026367188;	231,0;	0,0;	0,0
896,7294921875;	255,25;	0,0;	0,0
896,8136596679688;	254,75;	0,0;	0,0
896,8978881835938;	239,5;	0,0;	0,0
896,9819946289062;	236,5;	0,0;	0,0
897,0662231445312;	257,0;	0,0;	0,0
897,1503295898438;	251,0;	0,0;	0,0
897,234375;	229,75;	0,0;	0,0
897,3184814453125;	248,75;	0,0;	0,0
897,4025268554688;	231,75;	0,0;	0,0
897,486572265625;	246,5;	0,0;	0,0
897,570556640625;	243,0;	0,0;	0,0
897,6546020507812;	243,75;	0,0;	0,0
897,738525390625;	242,25;	0,0;	0,0
897,8224487304688;	233,25;	0,0;	0,0
897,9063720703125;	236,25;	0,0;	0,0
897,9902954101562;	238,0;	0,0;	0,0
898,0741577148438;	224,25;	0,0;	0,0
898,157958984375;	234,5;	0,0;	0,0
898,2417602539062;	247,0;	0,0;	0,0
898,3255615234375;	257,5;	0,0;	0,0
898,4093627929688;	242,0;	0,0;	0,0
898,4931030273438;	246,0;	0,0;	0,0
898,5768432617188;	233,75;	0,0;	0,0
898,6605834960938;	246,0;	0,0;	0,0
898,7442016601562;	239,25;	0,0;	0,0
898,827880859375;	234,0;	0,0;	0,0
898,9114379882812;	239,0;	0,0;	0,0
898,9950561523438;	244,25;	0,0;	0,0
899,07861328125;	251,5;	0,0;	0,0
899,1622314453125;	266,0;	0,0;	0,0
899,2456665039062;	216,0;	0,0;	0,0
899,3292846679688;	224,5;	0,0;	0,0
899,4127197265625;	262,0;	0,0;	0,0
899,4962158203125;	227,75;	0,0;	0,0
899,57958984375;	245,0;	0,0;	0,0
899,6630859375;	245,5;	0,0;	0,0
899,7463989257812;	269,25;	0,0;	0,0
899,8297729492188;	285,5;	0,0;	0,0
899,9130859375;	289,75;	0,0;	0,0
899,9963989257812;	268,0;	0,0;	0,0
900,0797119140625;	259,75;	0,0;	0,0
900,1629638671875;	241,0;	0,0;	0,0
900,2462158203125;	244,25;	0,0;	0,0
900,3294677734375;	249,75;	0,0;	0,0
900,4127197265625;	250,5;	0,0;	0,0
900,495849609375;	236,75;	0,0;	0,0
900,5790405273438;	245,5;	0,0;	0,0
900,662109375;	244,0;	0,0;	0,0
900,7451782226562;	229,75;	0,0;	0,0
900,8283081054688;	245,75;	0,0;	0,0
900,911376953125;	241,25;	0,0;	0,0
900,9944458007812;	233,75;	0,0;	0,0
901,0774536132812;	239,5;	0,0;	0,0
901,1603393554688;	238,75;	0,0;	0,0
901,2433471679688;	235,75;	0,0;	0,0
901,3262939453125;	239,0;	0,0;	0,0
901,4091796875;	259,25;	0,0;	0,0
901,4921264648438;	231,25;	0,0;	0,0
901,574951171875;	253,25;	0,0;	0,0
901,6578369140625;	267,25;	0,0;	0,0
901,7406616210938;	246,5;	0,0;	0,0
901,8234252929688;	264,5;	0,0;	0,0
901,9061889648438;	255,5;	0,0;	0,0
901,9889526367188;	236,0;	0,0;	0,0
902,0715942382812;	252,5;	0,0;	0,0
902,1543579101562;	240,75;	0,0;	0,0
902,237060546875;	270,25;	0,0;	0,0
902,3196411132812;	270,25;	0,0;	0,0
902,40234375;	243,5;	0,0;	0,0
902,48486328125;	267,25;	0,0;	0,0
902,5674438476562;	249,75;	0,0;	0,0
902,6499633789062;	248,5;	0,0;	0,0
902,7325439453125;	275,5;	0,0;	0,0
902,8150024414062;	276,75;	0,0;	0,0
902,8975219726562;	279,5;	0,0;	0,0
902,97998046875;	289,25;	0,0;	0,0
903,0624389648438;	272,75;	0,0;	0,0
903,144775390625;	300,25;	0,0;	0,0
903,227294921875;	269,25;	0,0;	0,0
903,3095703125;	262,25;	0,0;	0,0
903,391845703125;	266,5;	0,0;	0,0
903,4742431640625;	248,75;	0,0;	0,0
903,5565185546875;	261,0;	0,0;	0,0
903,6387939453125;	253,0;	0,0;	0,0
903,7210083007812;	262,0;	0,0;	0,0
903,80322265625;	263,25;	0,0;	0,0
903,8854370117188;	273,75;	0,0;	0,0
903,9675903320312;	258,5;	0,0;	0,0
904,0497436523438;	270,5;	0,0;	0,0
904,1318969726562;	290,0;	0,0;	0,0
904,2139892578125;	302,5;	0,0;	0,0
904,2960205078125;	294,75;	0,0;	0,0
904,3780517578125;	341,25;	0,0;	0,0
904,4600830078125;	394,75;	0,0;	0,0
904,5421142578125;	418,0;	0,0;	0,0
904,6240844726562;	367,75;	0,0;	0,0
904,7060546875;	348,75;	0,0;	0,0
904,7879638671875;	342,0;	0,0;	0,0
904,869873046875;	368,75;	0,0;	0,0
904,9517211914062;	347,0;	0,0;	0,0
905,0336303710938;	323,75;	0,0;	0,0
905,115478515625;	283,25;	0,0;	0,0
905,197265625;	255,0;	0,0;	0,0
905,279052734375;	266,25;	0,0;	0,0
905,36083984375;	290,5;	0,0;	0,0
905,4425659179688;	270,25;	0,0;	0,0
905,5242919921875;	260,0;	0,0;	0,0
905,6060180664062;	265,5;	0,0;	0,0
905,6876220703125;	276,0;	0,0;	0,0
905,769287109375;	278,25;	0,0;	0,0
905,8508911132812;	286,0;	0,0;	0,0
905,9324951171875;	293,0;	0,0;	0,0
906,0140380859375;	299,75;	0,0;	0,0
906,0956420898438;	283,5;	0,0;	0,0
906,1771240234375;	292,5;	0,0;	0,0
906,2586669921875;	292,5;	0,0;	0,0
906,3400268554688;	303,0;	0,0;	0,0
906,4215698242188;	275,25;	0,0;	0,0
906,5029296875;	279,75;	0,0;	0,0
906,5844116210938;	265,75;	0,0;	0,0
906,6657104492188;	248,75;	0,0;	0,0
906,7471313476562;	248,0;	0,0;	0,0
906,828369140625;	257,0;	0,0;	0,0
906,90966796875;	252,25;	0,0;	0,0
906,990966796875;	264,75;	0,0;	0,0
907,0722045898438;	246,25;	0,0;	0,0
907,1534423828125;	250,0;	0,0;	0,0
907,2346801757812;	261,5;	0,0;	0,0
907,3158569335938;	251,5;	0,0;	0,0
907,3970336914062;	249,75;	0,0;	0,0
907,4781494140625;	263,5;	0,0;	0,0
907,559326171875;	251,5;	0,0;	0,0
907,640380859375;	257,25;	0,0;	0,0
907,721435546875;	261,75;	0,0;	0,0
907,802490234375;	237,25;	0,0;	0,0
907,8834838867188;	258,25;	0,0;	0,0
907,9644775390625;	253,25;	0,0;	0,0
908,0454711914062;	254,5;	0,0;	0,0
908,1264038085938;	237,25;	0,0;	0,0
908,2073364257812;	237,0;	0,0;	0,0
908,2882080078125;	259,5;	0,0;	0,0
908,3690795898438;	253,0;	0,0;	0,0
908,449951171875;	242,25;	0,0;	0,0
908,53076171875;	264,0;	0,0;	0,0
908,6115112304688;	262,0;	0,0;	0,0
908,6923217773438;	276,25;	0,0;	0,0
908,7730712890625;	245,0;	0,0;	0,0
908,8538208007812;	282,5;	0,0;	0,0
908,9345092773438;	245,5;	0,0;	0,0
909,0151977539062;	245,5;	0,0;	0,0
909,0958251953125;	266,0;	0,0;	0,0
909,1764526367188;	251,0;	0,0;	0,0
909,257080078125;	246,75;	0,0;	0,0
909,337646484375;	267,75;	0,0;	0,0
909,418212890625;	263,25;	0,0;	0,0
909,4987182617188;	255,5;	0,0;	0,0
909,5792236328125;	253,0;	0,0;	0,0
909,65966796875;	256,75;	0,0;	0,0
909,7401733398438;	239,25;	0,0;	0,0
909,820556640625;	238,0;	0,0;	0,0
909,9010009765625;	240,75;	0,0;	0,0
909,9813842773438;	236,5;	0,0;	0,0
910,061767578125;	231,75;	0,0;	0,0
910,1420288085938;	244,5;	0,0;	0,0
910,222412109375;	227,5;	0,0;	0,0
910,3026733398438;	243,25;	0,0;	0,0
910,3829345703125;	238,75;	0,0;	0,0
910,4631958007812;	259,75;	0,0;	0,0
910,5433959960938;	222,75;	0,0;	0,0
910,6235961914062;	250,25;	0,0;	0,0
910,7037353515625;	229,0;	0,0;	0,0
910,783935546875;	226,25;	0,0;	0,0
910,864013671875;	245,25;	0,0;	0,0
910,944091796875;	239,25;	0,0;	0,0
911,024169921875;	250,5;	0,0;	0,0
911,104248046875;	251,0;	0,0;	0,0
911,1842651367188;	242,5;	0,0;	0,0
911,2642822265625;	263,5;	0,0;	0,0
911,3441772460938;	242,0;	0,0;	0,0
911,4241943359375;	232,25;	0,0;	0,0
911,5040893554688;	247,0;	0,0;	0,0
911,5840454101562;	240,75;	0,0;	0,0
911,6638793945312;	238,75;	0,0;	0,0
911,7437133789062;	257,0;	0,0;	0,0
911,8235473632812;	246,0;	0,0;	0,0
911,9033813476562;	246,5;	0,0;	0,0
911,983154296875;	238,75;	0,0;	0,0
912,0629272460938;	256,25;	0,0;	0,0
912,1426391601562;	246,5;	0,0;	0,0
912,2223510742188;	249,5;	0,0;	0,0
912,302001953125;	273,25;	0,0;	0,0
912,3817138671875;	227,25;	0,0;	0,0
912,4613037109375;	247,0;	0,0;	0,0
912,5409545898438;	253,25;	0,0;	0,0
912,6205444335938;	264,75;	0,0;	0,0
912,7000732421875;	242,5;	0,0;	0,0
912,7796630859375;	243,0;	0,0;	0,0
912,8590698242188;	235,5;	0,0;	0,0
912,9385986328125;	228,0;	0,0;	0,0
913,0181274414062;	227,75;	0,0;	0,0
913,0974731445312;	250,75;	0,0;	0,0
913,1769409179688;	238,0;	0,0;	0,0
913,2562866210938;	243,25;	0,0;	0,0
913,335693359375;	251,0;	0,0;	0,0
913,4149780273438;	234,25;	0,0;	0,0
913,494384765625;	238,75;	0,0;	0,0
913,5735473632812;	244,0;	0,0;	0,0
913,6528930664062;	247,5;	0,0;	0,0
913,7321166992188;	237,0;	0,0;	0,0
913,811279296875;	233,5;	0,0;	0,0
913,8905639648438;	235,75;	0,0;	0,0
913,9696655273438;	244,5;	0,0;	0,0
914,048828125;	215,75;	0,0;	0,0
914,1279296875;	244,0;	0,0;	0,0
914,20703125;	232,25;	0,0;	0,0
914,2861328125;	235,75;	0,0;	0,0
914,3651733398438;	230,25;	0,0;	0,0
914,4441528320312;	237,25;	0,0;	0,0
914,523193359375;	236,5;	0,0;	0,0
914,6021728515625;	252,5;	0,0;	0,0
914,68115234375;	237,25;	0,0;	0,0
914,7600708007812;	236,0;	0,0;	0,0
914,8389282226562;	235,5;	0,0;	0,0
914,9178466796875;	243,75;	0,0;	0,0
914,9967041015625;	252,25;	0,0;	0,0
915,0755004882812;	233,0;	0,0;	0,0
915,1543579101562;	239,5;	0,0;	0,0
915,2330932617188;	241,25;	0,0;	0,0
915,3118896484375;	238,75;	0,0;	0,0
915,3905639648438;	247,0;	0,0;	0,0
915,4692993164062;	254,0;	0,0;	0,0
915,5479736328125;	236,25;	0,0;	0,0
915,6266479492188;	248,5;	0,0;	0,0
915,7052612304688;	257,25;	0,0;	0,0
915,7838745117188;	248,5;	0,0;	0,0
915,8624877929688;	270,0;	0,0;	0,0
915,9409790039062;	265,0;	0,0;	0,0
916,01953125;	222,75;	0,0;	0,0
916,0980834960938;	235,5;	0,0;	0,0
916,1765747070312;	243,75;	0,0;	0,0
916,2550048828125;	251,5;	0,0;	0,0
916,3334350585938;	248,0;	0,0;	0,0
916,411865234375;	248,75;	0,0;	0,0
916,4901733398438;	231,25;	0,0;	0,0
916,568603515625;	258,75;	0,0;	0,0
916,6469116210938;	252,25;	0,0;	0,0
916,7252807617188;	230,5;	0,0;	0,0
916,803466796875;	244,25;	0,0;	0,0
916,8818359375;	251,5;	0,0;	0,0
916,9600219726562;	243,75;	0,0;	0,0
917,0382690429688;	240,0;	0,0;	0,0
917,1163940429688;	228,25;	0,0;	0,0
917,1946411132812;	230,5;	0,0;	0,0
917,272705078125;	265,25;	0,0;	0,0
917,350830078125;	236,25;	0,0;	0,0
917,428955078125;	260,5;	0,0;	0,0
917,507080078125;	246,0;	0,0;	0,0
917,5850830078125;	250,25;	0,0;	0,0
917,6630859375;	236,5;	0,0;	0,0
917,7410888671875;	246,5;	0,0;	0,0
917,819091796875;	247,25;	0,0;	0,0
917,8970336914062;	251,0;	0,0;	0,0
917,9749145507812;	254,5;	0,0;	0,0
918,0528564453125;	253,25;	0,0;	0,0
918,1307373046875;	250,75;	0,0;	0,0
918,2085571289062;	251,0;	0,0;	0,0
918,286376953125;	269,0;	0,0;	0,0
918,3641357421875;	236,25;	0,0;	0,0
918,4419555664062;	242,0;	0,0;	0,0
918,5197143554688;	243,25;	0,0;	0,0
918,597412109375;	229,0;	0,0;	0,0
918,6751098632812;	251,5;	0,0;	0,0
918,7528076171875;	248,5;	0,0;	0,0
918,8304443359375;	225,0;	0,0;	0,0
918,9080810546875;	248,5;	0,0;	0,0
918,9856567382812;	244,5;	0,0;	0,0
919,0632934570312;	239,75;	0,0;	0,0
919,1408081054688;	229,75;	0,0;	0,0
919,2183227539062;	251,5;	0,0;	0,0
919,2958374023438;	233,75;	0,0;	0,0
919,373291015625;	230,75;	0,0;	0,0
919,4507446289062;	239,25;	0,0;	0,0
919,5281982421875;	260,75;	0,0;	0,0
919,6056518554688;	243,25;	0,0;	0,0
919,6830444335938;	237,75;	0,0;	0,0
919,7603759765625;	250,75;	0,0;	0,0
919,837646484375;	242,0;	0,0;	0,0
919,9149780273438;	237,25;	0,0;	0,0
919,9921875;	241,5;	0,0;	0,0
920,0695190429688;	252,25;	0,0;	0,0
920,1466674804688;	228,75;	0,0;	0,0
920,2239990234375;	256,5;	0,0;	0,0
920,3010864257812;	228,5;	0,0;	0,0
920,3783569335938;	256,25;	0,0;	0,0
920,4553833007812;	254,0;	0,0;	0,0
920,5325927734375;	259,75;	0,0;	0,0
920,609619140625;	223,75;	0,0;	0,0
920,6866455078125;	213,75;	0,0;	0,0
920,763671875;	248,0;	0,0;	0,0
920,8406982421875;	226,5;	0,0;	0,0
920,9176635742188;	242,75;	0,0;	0,0
920,99462890625;	236,75;	0,0;	0,0
921,0715942382812;	243,75;	0,0;	0,0
921,1485595703125;	263,0;	0,0;	0,0
921,2254028320312;	220,75;	0,0;	0,0
921,30224609375;	248,25;	0,0;	0,0
921,3790893554688;	242,25;	0,0;	0,0
921,4559326171875;	223,75;	0,0;	0,0
921,53271484375;	224,5;	0,0;	0,0
921,6094970703125;	240,25;	0,0;	0,0
921,6862182617188;	237,5;	0,0;	0,0
921,7628784179688;	246,5;	0,0;	0,0
921,839599609375;	258,25;	0,0;	0,0
921,9163208007812;	243,75;	0,0;	0,0
921,992919921875;	243,0;	0,0;	0,0
922,0695190429688;	216,25;	0,0;	0,0
922,1461181640625;	255,25;	0,0;	0,0
922,2227172851562;	236,5;	0,0;	0,0
922,2992553710938;	240,25;	0,0;	0,0
922,375732421875;	226,0;	0,0;	0,0
922,4522094726562;	221,0;	0,0;	0,0
922,5286865234375;	230,5;	0,0;	0,0
922,6051025390625;	233,75;	0,0;	0,0
922,6815795898438;	220,0;	0,0;	0,0
922,7579345703125;	234,5;	0,0;	0,0
922,8342895507812;	250,0;	0,0;	0,0
922,9107055664062;	233,75;	0,0;	0,0
922,9869995117188;	256,25;	0,0;	0,0
923,063232421875;	255,5;	0,0;	0,0
923,1394653320312;	244,75;	0,0;	0,0
923,2158203125;	244,0;	0,0;	0,0
923,2919311523438;	232,75;	0,0;	0,0
923,3682250976562;	239,5;	0,0;	0,0
923,4442749023438;	249,75;	0,0;	0,0
923,5205688476562;	233,75;	0,0;	0,0
923,5966186523438;	220,5;	0,0;	0,0
923,6727294921875;	214,25;	0,0;	0,0
923,748779296875;	245,75;	0,0;	0,0
923,8248291015625;	247,25;	0,0;	0,0
923,9008178710938;	248,25;	0,0;	0,0
923,976806640625;	234,75;	0,0;	0,0
924,0527954101562;	234,5;	0,0;	0,0
924,128662109375;	228,25;	0,0;	0,0
924,2046508789062;	250,0;	0,0;	0,0
924,2805786132812;	247,0;	0,0;	0,0
924,3564453125;	232,75;	0,0;	0,0
924,4322509765625;	240,75;	0,0;	0,0
924,5081176757812;	241,0;	0,0;	0,0
924,5838623046875;	246,0;	0,0;	0,0
924,65966796875;	255,0;	0,0;	0,0
924,7353515625;	241,25;	0,0;	0,0
924,8111572265625;	247,75;	0,0;	0,0
924,8868408203125;	241,5;	0,0;	0,0
924,9624633789062;	249,5;	0,0;	0,0
925,0381469726562;	253,5;	0,0;	0,0
925,11376953125;	237,0;	0,0;	0,0
925,1893920898438;	249,75;	0,0;	0,0
925,2649536132812;	271,75;	0,0;	0,0
925,3404541015625;	239,25;	0,0;	0,0
925,416015625;	239,75;	0,0;	0,0
925,4915161132812;	263,0;	0,0;	0,0
925,5669555664062;	249,75;	0,0;	0,0
925,6423950195312;	260,75;	0,0;	0,0
925,7178955078125;	270,0;	0,0;	0,0
925,793212890625;	262,75;	0,0;	0,0
925,8685913085938;	288,0;	0,0;	0,0
925,9439697265625;	325,25;	0,0;	0,0
926,0193481445312;	330,25;	0,0;	0,0
926,0946044921875;	323,0;	0,0;	0,0
926,1698608398438;	345,75;	0,0;	0,0
926,2451171875;	337,0;	0,0;	0,0
926,3203735351562;	354,0;	0,0;	0,0
926,3955078125;	375,5;	0,0;	0,0
926,470703125;	366,0;	0,0;	0,0
926,5458374023438;	375,25;	0,0;	0,0
926,6209716796875;	0,0;	0,0;	0,0
