-0.5	0.0
Integration time [ms]:	1.05
Averaging Nr. [scans]:1
Smoothing Nr. [pixels]:0
Data measured with spectrometer [name]:b'1703277U8'
Wave	;Sample	;Dark	;Reference	;Scope	
[nm]	;[counts]	;[counts]	;[counts]	
 
493,2108154296875;	500,5;	0,0;	0,0
493,2895202636719;	403,0;	0,0;	0,0
493,36822509765625;	341,0;	0,0;	0,0
493,4468994140625;	320,75;	0,0;	0,0
493,52557373046875;	315,5;	0,0;	0,0
493,6042175292969;	366,25;	0,0;	0,0
493,6828918457031;	465,0;	0,0;	0,0
493,7615051269531;	545,0;	0,0;	0,0
493,8401184082031;	402,75;	0,0;	0,0
493,9187316894531;	329,75;	0,0;	0,0
493,9973449707031;	295,0;	0,0;	0,0
494,075927734375;	302,5;	0,0;	0,0
494,1545104980469;	316,5;	0,0;	0,0
494,2330627441406;	284,75;	0,0;	0,0
494,3116149902344;	344,25;	0,0;	0,0
494,3901672363281;	347,0;	0,0;	0,0
494,4686584472656;	399,75;	0,0;	0,0
494,5472106933594;	358,25;	0,0;	0,0
494,6257019042969;	316,25;	0,0;	0,0
494,7041931152344;	301,0;	0,0;	0,0
494,78265380859375;	339,0;	0,0;	0,0
494,86114501953125;	333,75;	0,0;	0,0
494,9395751953125;	338,0;	0,0;	0,0
495,0180358886719;	316,0;	0,0;	0,0
495,096435546875;	365,5;	0,0;	0,0
495,1748962402344;	369,5;	0,0;	0,0
495,2532653808594;	363,25;	0,0;	0,0
495,3316650390625;	446,5;	0,0;	0,0
495,4100341796875;	654,0;	0,0;	0,0
495,4884338378906;	1764,25;	0,0;	0,0
495,5667724609375;	5004,25;	0,0;	0,0
495,6451110839844;	5159,0;	0,0;	0,0
495,72344970703125;	1136,75;	0,0;	0,0
495,8017883300781;	479,5;	0,0;	0,0
495,8800964355469;	352,5;	0,0;	0,0
495,9583435058594;	365,0;	0,0;	0,0
496,0366516113281;	361,0;	0,0;	0,0
496,11492919921875;	359,25;	0,0;	0,0
496,19317626953125;	336,75;	0,0;	0,0
496,27142333984375;	342,75;	0,0;	0,0
496,34967041015625;	399,5;	0,0;	0,0
496,4278869628906;	579,0;	0,0;	0,0
496,506103515625;	545,5;	0,0;	0,0
496,58428955078125;	445,25;	0,0;	0,0
496,6625061035156;	414,75;	0,0;	0,0
496,74066162109375;	398,75;	0,0;	0,0
496,8188171386719;	394,5;	0,0;	0,0
496,89697265625;	409,25;	0,0;	0,0
496,9751281738281;	392,5;	0,0;	0,0
497,0532531738281;	346,75;	0,0;	0,0
497,1313171386719;	408,25;	0,0;	0,0
497,2094421386719;	398,75;	0,0;	0,0
497,28753662109375;	360,0;	0,0;	0,0
497,3656005859375;	341,75;	0,0;	0,0
497,44366455078125;	356,25;	0,0;	0,0
497,521728515625;	362,0;	0,0;	0,0
497,59979248046875;	379,25;	0,0;	0,0
497,67779541015625;	474,0;	0,0;	0,0
497,7558288574219;	499,25;	0,0;	0,0
497,83380126953125;	386,0;	0,0;	0,0
497,91180419921875;	462,0;	0,0;	0,0
497,9897766113281;	606,0;	0,0;	0,0
498,0677490234375;	875,0;	0,0;	0,0
498,1457214355469;	1058,0;	0,0;	0,0
498,2236633300781;	940,5;	0,0;	0,0
498,30157470703125;	752,0;	0,0;	0,0
498,3794860839844;	784,0;	0,0;	0,0
498,4573974609375;	583,5;	0,0;	0,0
498,5353088378906;	404,0;	0,0;	0,0
498,6131896972656;	364,25;	0,0;	0,0
498,6910705566406;	431,5;	0,0;	0,0
498,7688903808594;	452,5;	0,0;	0,0
498,84674072265625;	422,75;	0,0;	0,0
498,924560546875;	497,5;	0,0;	0,0
499,0024108886719;	481,0;	0,0;	0,0
499,0802307128906;	386,25;	0,0;	0,0
499,1579895019531;	406,25;	0,0;	0,0
499,23577880859375;	484,75;	0,0;	0,0
499,3135681152344;	443,25;	0,0;	0,0
499,3913269042969;	346,5;	0,0;	0,0
499,4690856933594;	315,5;	0,0;	0,0
499,5467834472656;	357,5;	0,0;	0,0
499,6245422363281;	357,75;	0,0;	0,0
499,7022399902344;	392,5;	0,0;	0,0
499,7799377441406;	436,75;	0,0;	0,0
499,8576354980469;	430,75;	0,0;	0,0
499,935302734375;	526,25;	0,0;	0,0
500,0129699707031;	882,75;	0,0;	0,0
500,090576171875;	819,75;	0,0;	0,0
500,1682434082031;	499,75;	0,0;	0,0
500,2458801269531;	465,75;	0,0;	0,0
500,323486328125;	654,5;	0,0;	0,0
500,40106201171875;	1280,75;	0,0;	0,0
500,47869873046875;	1552,25;	0,0;	0,0
500,5562744140625;	775,25;	0,0;	0,0
500,6337890625;	508,75;	0,0;	0,0
500,71136474609375;	413,25;	0,0;	0,0
500,7889099121094;	409,25;	0,0;	0,0
500,8664245605469;	370,0;	0,0;	0,0
500,9439392089844;	446,0;	0,0;	0,0
501,02142333984375;	735,75;	0,0;	0,0
501,09893798828125;	729,0;	0,0;	0,0
501,1764221191406;	451,5;	0,0;	0,0
501,25384521484375;	525,0;	0,0;	0,0
501,33135986328125;	720,5;	0,0;	0,0
501,40875244140625;	587,75;	0,0;	0,0
501,4862060546875;	384,5;	0,0;	0,0
501,5636291503906;	441,75;	0,0;	0,0
501,6410217285156;	577,0;	0,0;	0,0
501,7184143066406;	666,75;	0,0;	0,0
501,7957763671875;	404,75;	0,0;	0,0
501,8731384277344;	362,25;	0,0;	0,0
501,95050048828125;	403,75;	0,0;	0,0
502,0278625488281;	494,5;	0,0;	0,0
502,10516357421875;	511,75;	0,0;	0,0
502,1824951171875;	397,25;	0,0;	0,0
502,2597961425781;	384,0;	0,0;	0,0
502,33709716796875;	343,75;	0,0;	0,0
502,41436767578125;	374,75;	0,0;	0,0
502,4916687011719;	421,75;	0,0;	0,0
502,56890869140625;	542,0;	0,0;	0,0
502,6461486816406;	497,5;	0,0;	0,0
502,7233581542969;	424,25;	0,0;	0,0
502,8006286621094;	351,75;	0,0;	0,0
502,8778076171875;	357,25;	0,0;	0,0
502,9549865722656;	363,0;	0,0;	0,0
503,03216552734375;	358,25;	0,0;	0,0
503,1093444824219;	357,5;	0,0;	0,0
503,1865234375;	325,25;	0,0;	0,0
503,2636413574219;	349,5;	0,0;	0,0
503,34075927734375;	353,0;	0,0;	0,0
503,41790771484375;	382,5;	0,0;	0,0
503,4949951171875;	373,75;	0,0;	0,0
503,57208251953125;	360,5;	0,0;	0,0
503,6492004394531;	362,75;	0,0;	0,0
503,72625732421875;	404,5;	0,0;	0,0
503,8033142089844;	445,25;	0,0;	0,0
503,88037109375;	568,25;	0,0;	0,0
503,9573974609375;	790,25;	0,0;	0,0
504,034423828125;	826,75;	0,0;	0,0
504,1114196777344;	436,25;	0,0;	0,0
504,18841552734375;	353,0;	0,0;	0,0
504,2654113769531;	367,0;	0,0;	0,0
504,3423767089844;	341,5;	0,0;	0,0
504,4193115234375;	333,25;	0,0;	0,0
504,49627685546875;	333,0;	0,0;	0,0
504,5732421875;	337,0;	0,0;	0,0
504,650146484375;	421,5;	0,0;	0,0
504,7270202636719;	571,25;	0,0;	0,0
504,8039245605469;	801,0;	0,0;	0,0
504,880859375;	718,5;	0,0;	0,0
504,95770263671875;	537,0;	0,0;	0,0
505,0345458984375;	587,25;	0,0;	0,0
505,1114196777344;	381,0;	0,0;	0,0
505,1882629394531;	334,5;	0,0;	0,0
505,2650451660156;	333,25;	0,0;	0,0
505,34185791015625;	328,5;	0,0;	0,0
505,4186706542969;	347,5;	0,0;	0,0
505,4954528808594;	313,0;	0,0;	0,0
505,57220458984375;	353,25;	0,0;	0,0
505,6489562988281;	325,0;	0,0;	0,0
505,72576904296875;	328,25;	0,0;	0,0
505,802490234375;	332,75;	0,0;	0,0
505,87921142578125;	316,5;	0,0;	0,0
505,9559020996094;	355,0;	0,0;	0,0
506,0326232910156;	338,0;	0,0;	0,0
506,1092834472656;	354,5;	0,0;	0,0
506,1859436035156;	403,75;	0,0;	0,0
506,2626037597656;	474,25;	0,0;	0,0
506,3392639160156;	616,0;	0,0;	0,0
506,4159240722656;	487,5;	0,0;	0,0
506,4925231933594;	391,75;	0,0;	0,0
506,56915283203125;	394,75;	0,0;	0,0
506,645751953125;	464,5;	0,0;	0,0
506,72235107421875;	580,5;	0,0;	0,0
506,7989196777344;	504,25;	0,0;	0,0
506,8754577636719;	369,25;	0,0;	0,0
506,9520263671875;	382,75;	0,0;	0,0
507,028564453125;	432,25;	0,0;	0,0
507,1050720214844;	439,75;	0,0;	0,0
507,1816101074219;	463,5;	0,0;	0,0
507,2580871582031;	610,0;	0,0;	0,0
507,3345642089844;	601,25;	0,0;	0,0
507,4110412597656;	477,5;	0,0;	0,0
507,487548828125;	409,25;	0,0;	0,0
507,56396484375;	411,25;	0,0;	0,0
507,640380859375;	440,5;	0,0;	0,0
507,71685791015625;	598,0;	0,0;	0,0
507,7932434082031;	642,75;	0,0;	0,0
507,86962890625;	470,0;	0,0;	0,0
507,9460144042969;	367,5;	0,0;	0,0
508,02239990234375;	351,25;	0,0;	0,0
508,0987548828125;	428,5;	0,0;	0,0
508,17510986328125;	524,25;	0,0;	0,0
508,2514343261719;	406,0;	0,0;	0,0
508,3277893066406;	327,75;	0,0;	0,0
508,4040832519531;	329,5;	0,0;	0,0
508,4803771972656;	332,25;	0,0;	0,0
508,556640625;	309,0;	0,0;	0,0
508,6329650878906;	325,5;	0,0;	0,0
508,7091979980469;	349,75;	0,0;	0,0
508,78546142578125;	364,25;	0,0;	0,0
508,8616943359375;	373,5;	0,0;	0,0
508,93792724609375;	440,5;	0,0;	0,0
509,0141296386719;	368,25;	0,0;	0,0
509,09033203125;	340,75;	0,0;	0,0
509,1665344238281;	317,5;	0,0;	0,0
509,24267578125;	323,75;	0,0;	0,0
509,31884765625;	363,75;	0,0;	0,0
509,3949890136719;	362,5;	0,0;	0,0
509,4711608886719;	412,25;	0,0;	0,0
509,5472717285156;	473,25;	0,0;	0,0
509,62335205078125;	485,25;	0,0;	0,0
509,699462890625;	595,25;	0,0;	0,0
509,77557373046875;	513,25;	0,0;	0,0
509,85162353515625;	397,0;	0,0;	0,0
509,92767333984375;	380,5;	0,0;	0,0
510,00372314453125;	333,5;	0,0;	0,0
510,0798034667969;	326,0;	0,0;	0,0
510,15582275390625;	328,5;	0,0;	0,0
510,2318115234375;	340,0;	0,0;	0,0
510,3078308105469;	369,75;	0,0;	0,0
510,3837890625;	468,25;	0,0;	0,0
510,45977783203125;	471,5;	0,0;	0,0
510,5357360839844;	483,75;	0,0;	0,0
510,6116943359375;	647,5;	0,0;	0,0
510,6876220703125;	443,75;	0,0;	0,0
510,7635498046875;	422,5;	0,0;	0,0
510,8394470214844;	521,75;	0,0;	0,0
510,9153747558594;	547,25;	0,0;	0,0
510,9912414550781;	375,75;	0,0;	0,0
511,0671081542969;	327,75;	0,0;	0,0
511,1429443359375;	307,25;	0,0;	0,0
511,2188415527344;	344,25;	0,0;	0,0
511,2946472167969;	308,0;	0,0;	0,0
511,3704833984375;	320,75;	0,0;	0,0
511,4462890625;	311,75;	0,0;	0,0
511,5220947265625;	319,5;	0,0;	0,0
511,59783935546875;	326,0;	0,0;	0,0
511,6736145019531;	324,0;	0,0;	0,0
511,7494201660156;	318,75;	0,0;	0,0
511,82513427734375;	327,75;	0,0;	0,0
511,90087890625;	344,25;	0,0;	0,0
511,97662353515625;	365,0;	0,0;	0,0
512,0523071289062;	368,0;	0,0;	0,0
512,1280517578125;	398,25;	0,0;	0,0
512,2036743164062;	490,75;	0,0;	0,0
512,2793579101562;	542,0;	0,0;	0,0
512,3550415039062;	571,5;	0,0;	0,0
512,4306640625;	528,5;	0,0;	0,0
512,5062866210938;	438,5;	0,0;	0,0
512,5819702148438;	435,25;	0,0;	0,0
512,657470703125;	361,5;	0,0;	0,0
512,7330932617188;	364,75;	0,0;	0,0
512,8087158203125;	352,75;	0,0;	0,0
512,88427734375;	395,25;	0,0;	0,0
512,9598999023438;	440,0;	0,0;	0,0
513,035400390625;	507,25;	0,0;	0,0
513,1109008789062;	615,25;	0,0;	0,0
513,1864624023438;	833,25;	0,0;	0,0
513,2619018554688;	702,0;	0,0;	0,0
513,33740234375;	448,0;	0,0;	0,0
513,4129638671875;	427,5;	0,0;	0,0
513,4884033203125;	445,0;	0,0;	0,0
513,5638427734375;	610,5;	0,0;	0,0
513,6392822265625;	637,0;	0,0;	0,0
513,7147216796875;	991,0;	0,0;	0,0
513,7901000976562;	1706,75;	0,0;	0,0
513,8655395507812;	1096,0;	0,0;	0,0
513,94091796875;	438,75;	0,0;	0,0
514,0162963867188;	494,0;	0,0;	0,0
514,0916748046875;	560,5;	0,0;	0,0
514,1669921875;	483,25;	0,0;	0,0
514,2423706054688;	355,0;	0,0;	0,0
514,3176879882812;	347,75;	0,0;	0,0
514,3930053710938;	359,5;	0,0;	0,0
514,4683837890625;	384,25;	0,0;	0,0
514,5435791015625;	370,0;	0,0;	0,0
514,618896484375;	454,0;	0,0;	0,0
514,694091796875;	538,25;	0,0;	0,0
514,7694091796875;	422,75;	0,0;	0,0
514,8446655273438;	421,5;	0,0;	0,0
514,9198608398438;	468,5;	0,0;	0,0
514,9950561523438;	486,5;	0,0;	0,0
515,0703125;	437,0;	0,0;	0,0
515,1454467773438;	418,75;	0,0;	0,0
515,220703125;	425,25;	0,0;	0,0
515,2957763671875;	383,25;	0,0;	0,0
515,3709716796875;	382,75;	0,0;	0,0
515,4461059570312;	388,5;	0,0;	0,0
515,521240234375;	386,75;	0,0;	0,0
515,5963745117188;	375,0;	0,0;	0,0
515,6714477539062;	353,0;	0,0;	0,0
515,7465209960938;	398,25;	0,0;	0,0
515,8215942382812;	373,25;	0,0;	0,0
515,896728515625;	432,75;	0,0;	0,0
515,9717407226562;	440,5;	0,0;	0,0
516,0467529296875;	610,0;	0,0;	0,0
516,121826171875;	684,5;	0,0;	0,0
516,1968383789062;	543,0;	0,0;	0,0
516,2717895507812;	485,25;	0,0;	0,0
516,3468017578125;	528,75;	0,0;	0,0
516,4217529296875;	693,0;	0,0;	0,0
516,4967651367188;	1221,25;	0,0;	0,0
516,5716552734375;	2920,0;	0,0;	0,0
516,6466674804688;	2544,5;	0,0;	0,0
516,7215576171875;	976,25;	0,0;	0,0
516,7964477539062;	720,5;	0,0;	0,0
516,871337890625;	558,0;	0,0;	0,0
516,9461669921875;	842,5;	0,0;	0,0
517,0211181640625;	1171,75;	0,0;	0,0
517,0960083007812;	719,0;	0,0;	0,0
517,1707763671875;	486,25;	0,0;	0,0
517,24560546875;	383,0;	0,0;	0,0
517,3204345703125;	336,25;	0,0;	0,0
517,3952026367188;	310,25;	0,0;	0,0
517,4700927734375;	345,5;	0,0;	0,0
517,5448608398438;	343,0;	0,0;	0,0
517,61962890625;	319,0;	0,0;	0,0
517,6943969726562;	366,5;	0,0;	0,0
517,7691040039062;	356,5;	0,0;	0,0
517,8438110351562;	342,25;	0,0;	0,0
517,9185791015625;	361,5;	0,0;	0,0
517,9932250976562;	342,5;	0,0;	0,0
518,0679321289062;	402,75;	0,0;	0,0
518,1426391601562;	480,75;	0,0;	0,0
518,21728515625;	644,0;	0,0;	0,0
518,2919311523438;	494,25;	0,0;	0,0
518,3665771484375;	356,75;	0,0;	0,0
518,4412231445312;	357,25;	0,0;	0,0
518,515869140625;	365,25;	0,0;	0,0
518,5903930664062;	376,0;	0,0;	0,0
518,6650390625;	439,5;	0,0;	0,0
518,7396240234375;	429,75;	0,0;	0,0
518,8141479492188;	440,0;	0,0;	0,0
518,8887329101562;	573,0;	0,0;	0,0
518,9631958007812;	1067,5;	0,0;	0,0
519,0377807617188;	1546,75;	0,0;	0,0
519,1123046875;	1418,25;	0,0;	0,0
519,186767578125;	680,5;	0,0;	0,0
519,2612915039062;	537,5;	0,0;	0,0
519,3358154296875;	826,75;	0,0;	0,0
519,41015625;	746,25;	0,0;	0,0
519,4846801757812;	512,5;	0,0;	0,0
519,5591430664062;	397,75;	0,0;	0,0
519,633544921875;	412,75;	0,0;	0,0
519,7080078125;	467,25;	0,0;	0,0
519,7822875976562;	395,5;	0,0;	0,0
519,856689453125;	366,25;	0,0;	0,0
519,93115234375;	390,25;	0,0;	0,0
520,0054321289062;	429,75;	0,0;	0,0
520,0797729492188;	553,5;	0,0;	0,0
520,1541748046875;	478,75;	0,0;	0,0
520,2283935546875;	418,0;	0,0;	0,0
520,302734375;	488,0;	0,0;	0,0
520,3770751953125;	476,25;	0,0;	0,0
520,4512939453125;	517,75;	0,0;	0,0
520,525634765625;	421,25;	0,0;	0,0
520,5997924804688;	452,5;	0,0;	0,0
520,674072265625;	683,0;	0,0;	0,0
520,7483520507812;	642,5;	0,0;	0,0
520,822509765625;	405,75;	0,0;	0,0
520,8967895507812;	386,5;	0,0;	0,0
520,970947265625;	338,25;	0,0;	0,0
521,0451049804688;	348,0;	0,0;	0,0
521,1192626953125;	354,75;	0,0;	0,0
521,1934204101562;	353,75;	0,0;	0,0
521,267578125;	429,25;	0,0;	0,0
521,3417358398438;	580,0;	0,0;	0,0
521,415771484375;	695,5;	0,0;	0,0
521,4898681640625;	715,25;	0,0;	0,0
521,5640258789062;	624,75;	0,0;	0,0
521,6380615234375;	589,5;	0,0;	0,0
521,712158203125;	453,0;	0,0;	0,0
521,7862548828125;	375,25;	0,0;	0,0
521,8602294921875;	342,0;	0,0;	0,0
521,9342651367188;	357,25;	0,0;	0,0
522,0082397460938;	325,25;	0,0;	0,0
522,0822143554688;	354,0;	0,0;	0,0
522,1563110351562;	349,5;	0,0;	0,0
522,230224609375;	380,0;	0,0;	0,0
522,30419921875;	434,0;	0,0;	0,0
522,3781127929688;	536,0;	0,0;	0,0
522,4520874023438;	1034,5;	0,0;	0,0
522,5260009765625;	2522,25;	0,0;	0,0
522,599853515625;	2589,0;	0,0;	0,0
522,6737670898438;	819,0;	0,0;	0,0
522,7476806640625;	522,5;	0,0;	0,0
522,821533203125;	538,25;	0,0;	0,0
522,8953857421875;	550,5;	0,0;	0,0
522,96923828125;	540,0;	0,0;	0,0
523,0430297851562;	924,5;	0,0;	0,0
523,1168823242188;	2273,75;	0,0;	0,0
523,190673828125;	2186,0;	0,0;	0,0
523,2644653320312;	772,75;	0,0;	0,0
523,3382568359375;	468,5;	0,0;	0,0
523,4119873046875;	434,25;	0,0;	0,0
523,4857788085938;	375,25;	0,0;	0,0
523,5595703125;	359,5;	0,0;	0,0
523,6332397460938;	320,75;	0,0;	0,0
523,7069702148438;	322,75;	0,0;	0,0
523,7807006835938;	337,0;	0,0;	0,0
523,8543701171875;	339,5;	0,0;	0,0
523,927978515625;	355,75;	0,0;	0,0
524,0016479492188;	389,25;	0,0;	0,0
524,0753173828125;	469,25;	0,0;	0,0
524,14892578125;	453,5;	0,0;	0,0
524,2225341796875;	408,75;	0,0;	0,0
524,2962036132812;	347,25;	0,0;	0,0
524,3698120117188;	345,0;	0,0;	0,0
524,443359375;	348,5;	0,0;	0,0
524,5169067382812;	357,25;	0,0;	0,0
524,5905151367188;	366,25;	0,0;	0,0
524,6640014648438;	347,0;	0,0;	0,0
524,7376098632812;	354,5;	0,0;	0,0
524,8110961914062;	410,75;	0,0;	0,0
524,8845825195312;	476,5;	0,0;	0,0
524,9580688476562;	467,5;	0,0;	0,0
525,0315551757812;	365,5;	0,0;	0,0
525,10498046875;	356,25;	0,0;	0,0
525,178466796875;	366,75;	0,0;	0,0
525,2518920898438;	371,25;	0,0;	0,0
525,3253173828125;	338,25;	0,0;	0,0
525,3987426757812;	359,25;	0,0;	0,0
525,47216796875;	345,5;	0,0;	0,0
525,5455322265625;	339,75;	0,0;	0,0
525,618896484375;	322,5;	0,0;	0,0
525,6922607421875;	326,0;	0,0;	0,0
525,765625;	343,5;	0,0;	0,0
525,8389892578125;	369,25;	0,0;	0,0
525,9122924804688;	381,75;	0,0;	0,0
525,9856567382812;	444,25;	0,0;	0,0
526,0588989257812;	543,5;	0,0;	0,0
526,1322021484375;	574,75;	0,0;	0,0
526,2054443359375;	675,5;	0,0;	0,0
526,2786865234375;	614,25;	0,0;	0,0
526,3519897460938;	657,0;	0,0;	0,0
526,4251098632812;	962,25;	0,0;	0,0
526,4984130859375;	1538,25;	0,0;	0,0
526,5715942382812;	1218,75;	0,0;	0,0
526,644775390625;	919,5;	0,0;	0,0
526,718017578125;	2159,0;	0,0;	0,0
526,7911376953125;	5350,5;	0,0;	0,0
526,8642578125;	4794,0;	0,0;	0,0
526,9374389648438;	1870,75;	0,0;	0,0
527,0105590820312;	559,25;	0,0;	0,0
527,0836791992188;	435,0;	0,0;	0,0
527,15673828125;	563,25;	0,0;	0,0
527,2298583984375;	526,0;	0,0;	0,0
527,3029174804688;	394,25;	0,0;	0,0
527,3760375976562;	392,5;	0,0;	0,0
527,4490356445312;	393,0;	0,0;	0,0
527,5220336914062;	380,0;	0,0;	0,0
527,5950927734375;	344,0;	0,0;	0,0
527,6680908203125;	323,0;	0,0;	0,0
527,7411499023438;	334,75;	0,0;	0,0
527,8140869140625;	347,0;	0,0;	0,0
527,8870849609375;	413,0;	0,0;	0,0
527,9600219726562;	555,0;	0,0;	0,0
528,032958984375;	703,0;	0,0;	0,0
528,1058959960938;	681,75;	0,0;	0,0
528,1788330078125;	875,0;	0,0;	0,0
528,251708984375;	848,0;	0,0;	0,0
528,3245849609375;	497,5;	0,0;	0,0
528,3974609375;	383,5;	0,0;	0,0
528,4703369140625;	382,25;	0,0;	0,0
528,543212890625;	339,0;	0,0;	0,0
528,6160278320312;	355,0;	0,0;	0,0
528,6888427734375;	372,75;	0,0;	0,0
528,7616577148438;	357,25;	0,0;	0,0
528,8344116210938;	344,5;	0,0;	0,0
528,9072265625;	321,5;	0,0;	0,0
528,97998046875;	339,0;	0,0;	0,0
529,0527954101562;	326,75;	0,0;	0,0
529,12548828125;	383,5;	0,0;	0,0
529,1982421875;	346,25;	0,0;	0,0
529,27099609375;	346,75;	0,0;	0,0
529,34375;	340,0;	0,0;	0,0
529,4163208007812;	363,75;	0,0;	0,0
529,4890747070312;	352,75;	0,0;	0,0
529,561767578125;	383,0;	0,0;	0,0
529,6343383789062;	340,75;	0,0;	0,0
529,70703125;	353,0;	0,0;	0,0
529,7796020507812;	355,75;	0,0;	0,0
529,8522338867188;	354,75;	0,0;	0,0
529,9249267578125;	392,5;	0,0;	0,0
529,9974365234375;	477,25;	0,0;	0,0
530,070068359375;	629,5;	0,0;	0,0
530,142578125;	565,25;	0,0;	0,0
530,2151489257812;	387,25;	0,0;	0,0
530,2876586914062;	334,25;	0,0;	0,0
530,3602294921875;	362,5;	0,0;	0,0
530,4326782226562;	332,25;	0,0;	0,0
530,5052490234375;	330,5;	0,0;	0,0
530,57763671875;	384,5;	0,0;	0,0
530,650146484375;	351,5;	0,0;	0,0
530,72265625;	351,75;	0,0;	0,0
530,7950439453125;	344,5;	0,0;	0,0
530,8674926757812;	327,75;	0,0;	0,0
530,93994140625;	355,25;	0,0;	0,0
531,0122680664062;	346,25;	0,0;	0,0
531,084716796875;	355,75;	0,0;	0,0
531,1571044921875;	353,75;	0,0;	0,0
531,2294311523438;	355,75;	0,0;	0,0
531,3018188476562;	360,0;	0,0;	0,0
531,3740844726562;	336,0;	0,0;	0,0
531,4464111328125;	381,75;	0,0;	0,0
531,518798828125;	408,25;	0,0;	0,0
531,591064453125;	403,25;	0,0;	0,0
531,6633911132812;	359,5;	0,0;	0,0
531,7356567382812;	370,0;	0,0;	0,0
531,807861328125;	378,75;	0,0;	0,0
531,880126953125;	362,0;	0,0;	0,0
531,9523315429688;	362,0;	0,0;	0,0
532,0245361328125;	446,75;	0,0;	0,0
532,0968017578125;	494,0;	0,0;	0,0
532,1689453125;	767,75;	0,0;	0,0
532,2411499023438;	1534,0;	0,0;	0,0
532,3133544921875;	1510,5;	0,0;	0,0
532,3854370117188;	707,75;	0,0;	0,0
532,4576416015625;	592,5;	0,0;	0,0
532,5297241210938;	1051,25;	0,0;	0,0
532,6018676757812;	2799,0;	0,0;	0,0
532,6739501953125;	4299,75;	0,0;	0,0
532,7459716796875;	2060,25;	0,0;	0,0
532,818115234375;	547,25;	0,0;	0,0
532,8901977539062;	414,0;	0,0;	0,0
532,9622192382812;	376,0;	0,0;	0,0
533,0342407226562;	398,75;	0,0;	0,0
533,1062622070312;	436,5;	0,0;	0,0
533,1782836914062;	410,5;	0,0;	0,0
533,2503051757812;	376,5;	0,0;	0,0
533,3222045898438;	372,5;	0,0;	0,0
533,3942260742188;	329,25;	0,0;	0,0
533,4661865234375;	358,25;	0,0;	0,0
533,5380859375;	343,75;	0,0;	0,0
533,6100463867188;	379,75;	0,0;	0,0
533,6819458007812;	409,75;	0,0;	0,0
533,7538452148438;	486,0;	0,0;	0,0
533,82568359375;	754,0;	0,0;	0,0
533,8976440429688;	977,25;	0,0;	0,0
533,9694213867188;	843,75;	0,0;	0,0
534,0413208007812;	528,25;	0,0;	0,0
534,1130981445312;	380,0;	0,0;	0,0
534,1849975585938;	384,0;	0,0;	0,0
534,2567749023438;	379,5;	0,0;	0,0
534,3284912109375;	355,75;	0,0;	0,0
534,4003295898438;	398,5;	0,0;	0,0
534,4721069335938;	369,0;	0,0;	0,0
534,5438842773438;	375,5;	0,0;	0,0
534,6156005859375;	371,25;	0,0;	0,0
534,6873779296875;	422,25;	0,0;	0,0
534,759033203125;	447,25;	0,0;	0,0
534,830810546875;	455,5;	0,0;	0,0
534,9024047851562;	421,75;	0,0;	0,0
534,97412109375;	339,0;	0,0;	0,0
535,0457763671875;	348,0;	0,0;	0,0
535,1173706054688;	391,5;	0,0;	0,0
535,1890869140625;	423,25;	0,0;	0,0
535,2607421875;	387,25;	0,0;	0,0
535,332275390625;	356,0;	0,0;	0,0
535,4038696289062;	348,0;	0,0;	0,0
535,4754638671875;	360,25;	0,0;	0,0
535,5469970703125;	358,0;	0,0;	0,0
535,6185913085938;	349,5;	0,0;	0,0
535,6901245117188;	374,5;	0,0;	0,0
535,7616577148438;	371,0;	0,0;	0,0
535,8331909179688;	403,0;	0,0;	0,0
535,9046630859375;	415,0;	0,0;	0,0
535,9761962890625;	400,25;	0,0;	0,0
536,047607421875;	432,25;	0,0;	0,0
536,1190185546875;	451,5;	0,0;	0,0
536,1905517578125;	543,0;	0,0;	0,0
536,2619018554688;	611,5;	0,0;	0,0
536,3333740234375;	796,0;	0,0;	0,0
536,4048461914062;	747,0;	0,0;	0,0
536,4761352539062;	683,25;	0,0;	0,0
536,5475463867188;	860,5;	0,0;	0,0
536,6189575195312;	866,25;	0,0;	0,0
536,6902465820312;	666,5;	0,0;	0,0
536,7615966796875;	813,5;	0,0;	0,0
536,8329467773438;	1197,5;	0,0;	0,0
536,9042358398438;	1601,25;	0,0;	0,0
536,9755859375;	2859,5;	0,0;	0,0
537,046875;	2464,75;	0,0;	0,0
537,1181030273438;	864,75;	0,0;	0,0
537,1893920898438;	432,25;	0,0;	0,0
537,2606201171875;	405,0;	0,0;	0,0
537,3319091796875;	418,75;	0,0;	0,0
537,403076171875;	396,25;	0,0;	0,0
537,4743041992188;	383,25;	0,0;	0,0
537,5454711914062;	418,5;	0,0;	0,0
537,6165771484375;	406,5;	0,0;	0,0
537,6878051757812;	379,25;	0,0;	0,0
537,7589721679688;	406,5;	0,0;	0,0
537,830078125;	421,0;	0,0;	0,0
537,9012451171875;	454,25;	0,0;	0,0
537,9723510742188;	465,75;	0,0;	0,0
538,0433959960938;	635,0;	0,0;	0,0
538,1145629882812;	1016,25;	0,0;	0,0
538,1856079101562;	1300,5;	0,0;	0,0
538,2566528320312;	940,0;	0,0;	0,0
538,3276977539062;	515,75;	0,0;	0,0
538,398681640625;	425,0;	0,0;	0,0
538,4697265625;	398,0;	0,0;	0,0
538,5408325195312;	396,75;	0,0;	0,0
538,6117553710938;	397,5;	0,0;	0,0
538,6827392578125;	445,25;	0,0;	0,0
538,753662109375;	462,0;	0,0;	0,0
538,8246459960938;	496,0;	0,0;	0,0
538,8956298828125;	444,75;	0,0;	0,0
538,9664916992188;	431,75;	0,0;	0,0
539,0374145507812;	489,5;	0,0;	0,0
539,1083374023438;	549,5;	0,0;	0,0
539,1791381835938;	723,0;	0,0;	0,0
539,2500610351562;	629,75;	0,0;	0,0
539,3209228515625;	499,75;	0,0;	0,0
539,3917236328125;	505,25;	0,0;	0,0
539,4625854492188;	781,75;	0,0;	0,0
539,5333862304688;	1760,5;	0,0;	0,0
539,6041870117188;	1668,75;	0,0;	0,0
539,6749877929688;	817,75;	0,0;	0,0
539,7457275390625;	499,5;	0,0;	0,0
539,8165283203125;	502,75;	0,0;	0,0
539,8872680664062;	623,25;	0,0;	0,0
539,9580078125;	560,25;	0,0;	0,0
540,0286865234375;	543,75;	0,0;	0,0
540,0994873046875;	588,75;	0,0;	0,0
540,170166015625;	940,25;	0,0;	0,0
540,2408447265625;	1353,5;	0,0;	0,0
540,3114624023438;	1453,0;	0,0;	0,0
540,3821411132812;	1893,25;	0,0;	0,0
540,4528198242188;	2182,25;	0,0;	0,0
540,5233764648438;	980,0;	0,0;	0,0
540,5940551757812;	490,25;	0,0;	0,0
540,6646728515625;	466,5;	0,0;	0,0
540,7351684570312;	486,0;	0,0;	0,0
540,8057861328125;	591,5;	0,0;	0,0
540,8763427734375;	716,5;	0,0;	0,0
540,9468383789062;	818,5;	0,0;	0,0
541,0174560546875;	677,75;	0,0;	0,0
541,087890625;	522,5;	0,0;	0,0
541,158447265625;	512,25;	0,0;	0,0
541,2289428710938;	660,75;	0,0;	0,0
541,2994384765625;	954,75;	0,0;	0,0
541,369873046875;	1144,75;	0,0;	0,0
541,4403686523438;	892,25;	0,0;	0,0
541,5107421875;	513,0;	0,0;	0,0
541,5811767578125;	449,75;	0,0;	0,0
541,6515502929688;	410,25;	0,0;	0,0
541,7219848632812;	418,75;	0,0;	0,0
541,7923583984375;	419,5;	0,0;	0,0
541,8627319335938;	434,0;	0,0;	0,0
541,93310546875;	460,75;	0,0;	0,0
542,0034790039062;	512,0;	0,0;	0,0
542,07373046875;	627,75;	0,0;	0,0
542,1441040039062;	842,75;	0,0;	0,0
542,21435546875;	1250,0;	0,0;	0,0
542,28466796875;	1331,75;	0,0;	0,0
542,3549194335938;	750,0;	0,0;	0,0
542,4251708984375;	497,75;	0,0;	0,0
542,4954833984375;	443,25;	0,0;	0,0
542,5657348632812;	448,5;	0,0;	0,0
542,6358642578125;	521,75;	0,0;	0,0
542,7061157226562;	787,0;	0,0;	0,0
542,7763671875;	1735,75;	0,0;	0,0
542,846435546875;	2119,5;	0,0;	0,0
542,9166870117188;	990,25;	0,0;	0,0
542,98681640625;	420,25;	0,0;	0,0
543,0569458007812;	439,0;	0,0;	0,0
543,1271362304688;	520,75;	0,0;	0,0
543,1971435546875;	639,75;	0,0;	0,0
543,267333984375;	1202,0;	0,0;	0,0
543,33740234375;	1289,5;	0,0;	0,0
543,407470703125;	692,5;	0,0;	0,0
543,4774780273438;	401,75;	0,0;	0,0
543,547607421875;	422,25;	0,0;	0,0
543,6175537109375;	401,0;	0,0;	0,0
543,6876220703125;	393,75;	0,0;	0,0
543,7576293945312;	395,75;	0,0;	0,0
543,8275756835938;	403,75;	0,0;	0,0
543,8975830078125;	384,0;	0,0;	0,0
543,9674682617188;	386,0;	0,0;	0,0
544,0374755859375;	403,25;	0,0;	0,0
544,107421875;	407,25;	0,0;	0,0
544,1773071289062;	453,75;	0,0;	0,0
544,2472534179688;	541,5;	0,0;	0,0
544,317138671875;	682,5;	0,0;	0,0
544,386962890625;	815,5;	0,0;	0,0
544,4568481445312;	1043,5;	0,0;	0,0
544,5266723632812;	1981,25;	0,0;	0,0
544,5965576171875;	1651,25;	0,0;	0,0
544,6663818359375;	658,25;	0,0;	0,0
544,7361450195312;	408,25;	0,0;	0,0
544,8060302734375;	422,75;	0,0;	0,0
544,8757934570312;	392,5;	0,0;	0,0
544,945556640625;	409,5;	0,0;	0,0
545,0153198242188;	402,0;	0,0;	0,0
545,0850830078125;	418,0;	0,0;	0,0
545,15478515625;	469,25;	0,0;	0,0
545,2244873046875;	542,75;	0,0;	0,0
545,294189453125;	742,25;	0,0;	0,0
545,3639526367188;	1482,0;	0,0;	0,0
545,43359375;	1718,0;	0,0;	0,0
545,5032348632812;	922,0;	0,0;	0,0
545,5729370117188;	442,25;	0,0;	0,0
545,6424560546875;	420,5;	0,0;	0,0
545,712158203125;	386,0;	0,0;	0,0
545,78173828125;	393,0;	0,0;	0,0
545,851318359375;	410,0;	0,0;	0,0
545,9208984375;	420,5;	0,0;	0,0
545,9905395507812;	478,75;	0,0;	0,0
546,0599975585938;	506,0;	0,0;	0,0
546,1295776367188;	665,0;	0,0;	0,0
546,1990966796875;	683,0;	0,0;	0,0
546,2686157226562;	534,75;	0,0;	0,0
546,338134765625;	452,25;	0,0;	0,0
546,4075317382812;	439,0;	0,0;	0,0
546,4771118164062;	443,0;	0,0;	0,0
546,5465698242188;	402,0;	0,0;	0,0
546,615966796875;	408,25;	0,0;	0,0
546,6853637695312;	390,0;	0,0;	0,0
546,7548217773438;	420,0;	0,0;	0,0
546,82421875;	383,5;	0,0;	0,0
546,8936157226562;	407,5;	0,0;	0,0
546,9630126953125;	397,0;	0,0;	0,0
547,0323486328125;	417,5;	0,0;	0,0
547,1016845703125;	404,5;	0,0;	0,0
547,1710205078125;	449,25;	0,0;	0,0
547,2403564453125;	493,75;	0,0;	0,0
547,3096923828125;	502,5;	0,0;	0,0
547,37890625;	466,25;	0,0;	0,0
547,4482421875;	592,25;	0,0;	0,0
547,5175170898438;	671,0;	0,0;	0,0
547,586669921875;	572,75;	0,0;	0,0
547,6559448242188;	456,25;	0,0;	0,0
547,7252197265625;	427,0;	0,0;	0,0
547,7943725585938;	418,0;	0,0;	0,0
547,8636474609375;	419,5;	0,0;	0,0
547,9327392578125;	446,75;	0,0;	0,0
548,001953125;	462,0;	0,0;	0,0
548,0711059570312;	479,5;	0,0;	0,0
548,1401977539062;	434,5;	0,0;	0,0
548,2093505859375;	409,75;	0,0;	0,0
548,2784423828125;	429,75;	0,0;	0,0
548,3475341796875;	404,0;	0,0;	0,0
548,4166259765625;	407,25;	0,0;	0,0
548,4857177734375;	450,75;	0,0;	0,0
548,5547485351562;	465,75;	0,0;	0,0
548,6238403320312;	520,75;	0,0;	0,0
548,6928100585938;	494,5;	0,0;	0,0
548,7619018554688;	462,5;	0,0;	0,0
548,8309326171875;	424,75;	0,0;	0,0
548,8998413085938;	439,75;	0,0;	0,0
548,9688720703125;	439,25;	0,0;	0,0
549,0377807617188;	418,25;	0,0;	0,0
549,1067504882812;	414,25;	0,0;	0,0
549,1756591796875;	460,75;	0,0;	0,0
549,2445678710938;	436,75;	0,0;	0,0
549,3135375976562;	426,0;	0,0;	0,0
549,3824462890625;	448,0;	0,0;	0,0
549,4512939453125;	453,0;	0,0;	0,0
549,5201416015625;	533,75;	0,0;	0,0
549,5890502929688;	627,75;	0,0;	0,0
549,6578369140625;	627,5;	0,0;	0,0
549,7266845703125;	479,0;	0,0;	0,0
549,7954711914062;	448,5;	0,0;	0,0
549,8642578125;	456,25;	0,0;	0,0
549,93310546875;	520,25;	0,0;	0,0
550,0017700195312;	612,75;	0,0;	0,0
550,070556640625;	546,0;	0,0;	0,0
550,1393432617188;	477,25;	0,0;	0,0
550,2080078125;	465,5;	0,0;	0,0
550,2767944335938;	488,5;	0,0;	0,0
550,345458984375;	472,75;	0,0;	0,0
550,4141235351562;	514,5;	0,0;	0,0
550,4828491210938;	671,0;	0,0;	0,0
550,5513916015625;	742,25;	0,0;	0,0
550,6201171875;	585,25;	0,0;	0,0
550,688720703125;	489,25;	0,0;	0,0
550,75732421875;	471,25;	0,0;	0,0
550,8259887695312;	469,5;	0,0;	0,0
550,89453125;	472,0;	0,0;	0,0
550,9630737304688;	492,0;	0,0;	0,0
551,0316772460938;	488,0;	0,0;	0,0
551,1002197265625;	527,0;	0,0;	0,0
551,1687622070312;	495,25;	0,0;	0,0
551,2373046875;	499,0;	0,0;	0,0
551,3057250976562;	511,5;	0,0;	0,0
551,374267578125;	477,0;	0,0;	0,0
551,4427490234375;	509,5;	0,0;	0,0
551,5111694335938;	471,5;	0,0;	0,0
551,5796508789062;	490,5;	0,0;	0,0
551,6480102539062;	463,75;	0,0;	0,0
551,7164916992188;	494,5;	0,0;	0,0
551,7849731445312;	493,25;	0,0;	0,0
551,8533325195312;	471,25;	0,0;	0,0
551,9216918945312;	490,75;	0,0;	0,0
551,9901123046875;	476,25;	0,0;	0,0
552,0584106445312;	490,25;	0,0;	0,0
552,1267700195312;	505,0;	0,0;	0,0
552,195068359375;	466,5;	0,0;	0,0
552,2633666992188;	472,75;	0,0;	0,0
552,3316650390625;	472,0;	0,0;	0,0
552,39990234375;	434,5;	0,0;	0,0
552,46826171875;	484,5;	0,0;	0,0
552,5364990234375;	480,25;	0,0;	0,0
552,6046752929688;	460,75;	0,0;	0,0
552,6729736328125;	492,5;	0,0;	0,0
552,7412109375;	486,75;	0,0;	0,0
552,809326171875;	474,25;	0,0;	0,0
552,8775634765625;	477,5;	0,0;	0,0
552,9457397460938;	503,25;	0,0;	0,0
553,0138549804688;	527,75;	0,0;	0,0
553,08203125;	483,25;	0,0;	0,0
553,150146484375;	532,5;	0,0;	0,0
553,2182006835938;	531,75;	0,0;	0,0
553,286376953125;	511,0;	0,0;	0,0
553,3544311523438;	667,25;	0,0;	0,0
553,4225463867188;	755,5;	0,0;	0,0
553,4906005859375;	610,75;	0,0;	0,0
553,55859375;	538,75;	0,0;	0,0
553,626708984375;	547,0;	0,0;	0,0
553,6947021484375;	507,0;	0,0;	0,0
553,7626953125;	539,25;	0,0;	0,0
553,8306884765625;	547,75;	0,0;	0,0
553,8986206054688;	512,75;	0,0;	0,0
553,9666137695312;	521,5;	0,0;	0,0
554,0346069335938;	534,5;	0,0;	0,0
554,1024780273438;	531,5;	0,0;	0,0
554,1704711914062;	603,75;	0,0;	0,0
554,2384033203125;	584,25;	0,0;	0,0
554,3062133789062;	550,25;	0,0;	0,0
554,3740844726562;	539,75;	0,0;	0,0
554,4419555664062;	538,25;	0,0;	0,0
554,509765625;	547,25;	0,0;	0,0
554,57763671875;	567,0;	0,0;	0,0
554,6454467773438;	507,0;	0,0;	0,0
554,7133178710938;	494,75;	0,0;	0,0
554,7810668945312;	502,5;	0,0;	0,0
554,8488159179688;	508,0;	0,0;	0,0
554,9166259765625;	502,5;	0,0;	0,0
554,9843139648438;	494,0;	0,0;	0,0
555,0521240234375;	543,25;	0,0;	0,0
555,119873046875;	526,25;	0,0;	0,0
555,1875;	521,0;	0,0;	0,0
555,2552490234375;	525,25;	0,0;	0,0
555,3229370117188;	603,0;	0,0;	0,0
555,390625;	560,0;	0,0;	0,0
555,458251953125;	513,0;	0,0;	0,0
555,52587890625;	512,5;	0,0;	0,0
555,593505859375;	512,5;	0,0;	0,0
555,6611328125;	504,5;	0,0;	0,0
555,7286987304688;	492,0;	0,0;	0,0
555,7963256835938;	502,0;	0,0;	0,0
555,8638916015625;	488,75;	0,0;	0,0
555,931396484375;	517,75;	0,0;	0,0
555,9989624023438;	509,75;	0,0;	0,0
556,0665283203125;	521,0;	0,0;	0,0
556,1339721679688;	534,5;	0,0;	0,0
556,2014770507812;	563,25;	0,0;	0,0
556,26904296875;	551,25;	0,0;	0,0
556,3364868164062;	529,75;	0,0;	0,0
556,4039306640625;	585,5;	0,0;	0,0
556,4713134765625;	550,25;	0,0;	0,0
556,538818359375;	495,5;	0,0;	0,0
556,6062622070312;	514,0;	0,0;	0,0
556,673583984375;	516,75;	0,0;	0,0
556,7410278320312;	671,75;	0,0;	0,0
556,8084716796875;	892,5;	0,0;	0,0
556,875732421875;	873,75;	0,0;	0,0
556,943115234375;	617,5;	0,0;	0,0
557,010498046875;	617,25;	0,0;	0,0
557,0776977539062;	901,25;	0,0;	0,0
557,1450805664062;	1338,25;	0,0;	0,0
557,2123413085938;	1018,25;	0,0;	0,0
557,2796020507812;	587,25;	0,0;	0,0
557,346923828125;	510,5;	0,0;	0,0
557,4141235351562;	591,0;	0,0;	0,0
557,4813232421875;	659,0;	0,0;	0,0
557,5485229492188;	541,0;	0,0;	0,0
557,6157836914062;	486,5;	0,0;	0,0
557,6829833984375;	436,25;	0,0;	0,0
557,7501831054688;	463,5;	0,0;	0,0
557,8173217773438;	458,5;	0,0;	0,0
557,8844604492188;	421,0;	0,0;	0,0
557,9515991210938;	473,75;	0,0;	0,0
558,0187377929688;	509,5;	0,0;	0,0
558,0858764648438;	551,25;	0,0;	0,0
558,1528930664062;	526,25;	0,0;	0,0
558,219970703125;	461,5;	0,0;	0,0
558,2869873046875;	476,25;	0,0;	0,0
558,3540649414062;	581,75;	0,0;	0,0
558,421142578125;	750,5;	0,0;	0,0
558,4881591796875;	1441,0;	0,0;	0,0
558,55517578125;	1814,25;	0,0;	0,0
558,6221923828125;	1263,0;	0,0;	0,0
558,6891479492188;	1188,75;	0,0;	0,0
558,7561645507812;	1282,75;	0,0;	0,0
558,8230590820312;	840,0;	0,0;	0,0
558,8900146484375;	618,5;	0,0;	0,0
558,9569702148438;	514,5;	0,0;	0,0
559,0238037109375;	483,25;	0,0;	0,0
559,0906982421875;	463,25;	0,0;	0,0
559,1576538085938;	487,5;	0,0;	0,0
559,2244262695312;	708,25;	0,0;	0,0
559,2913208007812;	898,75;	0,0;	0,0
559,358154296875;	806,5;	0,0;	0,0
559,4249877929688;	515,5;	0,0;	0,0
559,4918212890625;	456,75;	0,0;	0,0
559,5586547851562;	543,5;	0,0;	0,0
559,6253662109375;	617,25;	0,0;	0,0
559,692138671875;	861,75;	0,0;	0,0
559,7589111328125;	713,75;	0,0;	0,0
559,8256225585938;	529,25;	0,0;	0,0
559,8923950195312;	492,75;	0,0;	0,0
559,9590454101562;	569,5;	0,0;	0,0
560,0257568359375;	577,25;	0,0;	0,0
560,0924682617188;	690,25;	0,0;	0,0
560,1591186523438;	855,0;	0,0;	0,0
560,225830078125;	618,25;	0,0;	0,0
560,29248046875;	471,75;	0,0;	0,0
560,3590698242188;	449,5;	0,0;	0,0
560,4256591796875;	432,5;	0,0;	0,0
560,4921875;	425,5;	0,0;	0,0
560,5587768554688;	402,0;	0,0;	0,0
560,6254272460938;	463,75;	0,0;	0,0
560,6919555664062;	443,75;	0,0;	0,0
560,7584838867188;	421,25;	0,0;	0,0
560,824951171875;	435,75;	0,0;	0,0
560,8914794921875;	452,0;	0,0;	0,0
560,9580688476562;	450,75;	0,0;	0,0
561,0245361328125;	451,75;	0,0;	0,0
561,0909423828125;	458,0;	0,0;	0,0
561,157470703125;	500,75;	0,0;	0,0
561,2238159179688;	561,5;	0,0;	0,0
561,2903442382812;	776,75;	0,0;	0,0
561,3567504882812;	1412,75;	0,0;	0,0
561,4231567382812;	2514,5;	0,0;	0,0
561,489501953125;	1752,75;	0,0;	0,0
561,5558471679688;	779,25;	0,0;	0,0
561,6222534179688;	531,25;	0,0;	0,0
561,6885986328125;	522,75;	0,0;	0,0
561,7548828125;	499,25;	0,0;	0,0
561,8211669921875;	484,25;	0,0;	0,0
561,8875122070312;	456,0;	0,0;	0,0
561,9537963867188;	479,5;	0,0;	0,0
562,0200805664062;	484,25;	0,0;	0,0
562,0863647460938;	487,5;	0,0;	0,0
562,152587890625;	499,5;	0,0;	0,0
562,2188110351562;	570,5;	0,0;	0,0
562,2849731445312;	709,75;	0,0;	0,0
562,3511962890625;	720,0;	0,0;	0,0
562,4174194335938;	604,25;	0,0;	0,0
562,4835205078125;	449,75;	0,0;	0,0
562,5496826171875;	447,75;	0,0;	0,0
562,6159057617188;	466,75;	0,0;	0,0
562,6820068359375;	485,5;	0,0;	0,0
562,748046875;	476,0;	0,0;	0,0
562,814208984375;	423,75;	0,0;	0,0
562,8803100585938;	495,75;	0,0;	0,0
562,9463500976562;	466,75;	0,0;	0,0
563,0123901367188;	436,25;	0,0;	0,0
563,0784301757812;	457,0;	0,0;	0,0
563,14453125;	457,75;	0,0;	0,0
563,21044921875;	481,75;	0,0;	0,0
563,2764892578125;	498,75;	0,0;	0,0
563,3424682617188;	505,0;	0,0;	0,0
563,408447265625;	476,0;	0,0;	0,0
563,4744262695312;	508,75;	0,0;	0,0
563,5404052734375;	516,25;	0,0;	0,0
563,6062622070312;	512,75;	0,0;	0,0
563,6722412109375;	534,0;	0,0;	0,0
563,7380981445312;	540,5;	0,0;	0,0
563,8040161132812;	472,25;	0,0;	0,0
563,869873046875;	482,0;	0,0;	0,0
563,9356689453125;	482,75;	0,0;	0,0
564,0015258789062;	505,0;	0,0;	0,0
564,0673217773438;	491,25;	0,0;	0,0
564,1331787109375;	493,5;	0,0;	0,0
564,1990356445312;	495,0;	0,0;	0,0
564,2647705078125;	476,75;	0,0;	0,0
564,3305053710938;	461,5;	0,0;	0,0
564,3963012695312;	476,0;	0,0;	0,0
564,4620361328125;	458,25;	0,0;	0,0
564,5277709960938;	479,0;	0,0;	0,0
564,593505859375;	481,75;	0,0;	0,0
564,6591796875;	449,25;	0,0;	0,0
564,7249145507812;	470,0;	0,0;	0,0
564,7904663085938;	512,0;	0,0;	0,0
564,856201171875;	505,0;	0,0;	0,0
564,9218139648438;	504,75;	0,0;	0,0
564,9874877929688;	469,5;	0,0;	0,0
565,0530395507812;	493,0;	0,0;	0,0
565,1187133789062;	485,0;	0,0;	0,0
565,1842651367188;	487,0;	0,0;	0,0
565,2498168945312;	501,25;	0,0;	0,0
565,3153686523438;	486,75;	0,0;	0,0
565,3809204101562;	569,5;	0,0;	0,0
565,4464721679688;	568,5;	0,0;	0,0
565,511962890625;	515,5;	0,0;	0,0
565,5774536132812;	503,5;	0,0;	0,0
565,6429443359375;	552,75;	0,0;	0,0
565,7083740234375;	750,25;	0,0;	0,0
565,7738647460938;	737,75;	0,0;	0,0
565,83935546875;	595,75;	0,0;	0,0
565,9047241210938;	528,25;	0,0;	0,0
565,9701538085938;	499,25;	0,0;	0,0
566,0355834960938;	564,0;	0,0;	0,0
566,1009521484375;	645,75;	0,0;	0,0
566,1663208007812;	614,75;	0,0;	0,0
566,2316284179688;	522,0;	0,0;	0,0
566,2969970703125;	511,5;	0,0;	0,0
566,3623657226562;	486,0;	0,0;	0,0
566,4276123046875;	497,25;	0,0;	0,0
566,4929809570312;	530,75;	0,0;	0,0
566,5582275390625;	518,0;	0,0;	0,0
566,6234741210938;	484,25;	0,0;	0,0
566,688720703125;	515,5;	0,0;	0,0
566,7540283203125;	496,0;	0,0;	0,0
566,8192138671875;	506,25;	0,0;	0,0
566,8843994140625;	491,0;	0,0;	0,0
566,9495849609375;	489,5;	0,0;	0,0
567,0147705078125;	505,75;	0,0;	0,0
567,0799560546875;	462,5;	0,0;	0,0
567,1451416015625;	476,0;	0,0;	0,0
567,2102661132812;	509,5;	0,0;	0,0
567,2753295898438;	496,75;	0,0;	0,0
567,3405151367188;	494,75;	0,0;	0,0
567,4055786132812;	489,25;	0,0;	0,0
567,4706420898438;	529,0;	0,0;	0,0
567,5357055664062;	509,25;	0,0;	0,0
567,600830078125;	490,25;	0,0;	0,0
567,6658325195312;	495,75;	0,0;	0,0
567,7308959960938;	542,5;	0,0;	0,0
567,7958374023438;	534,0;	0,0;	0,0
567,86083984375;	523,5;	0,0;	0,0
567,9258422851562;	510,5;	0,0;	0,0
567,9907836914062;	569,75;	0,0;	0,0
568,0557250976562;	686,75;	0,0;	0,0
568,1207275390625;	809,5;	0,0;	0,0
568,185546875;	807,75;	0,0;	0,0
568,25048828125;	685,75;	0,0;	0,0
568,3153686523438;	608,25;	0,0;	0,0
568,3802490234375;	611,25;	0,0;	0,0
568,4451293945312;	677,25;	0,0;	0,0
568,5100708007812;	666,25;	0,0;	0,0
568,5748291015625;	764,25;	0,0;	0,0
568,6396484375;	944,5;	0,0;	0,0
568,7044677734375;	1122,5;	0,0;	0,0
568,769287109375;	1010,0;	0,0;	0,0
568,8340454101562;	841,0;	0,0;	0,0
568,8987426757812;	679,0;	0,0;	0,0
568,9635009765625;	648,25;	0,0;	0,0
569,0282592773438;	578,75;	0,0;	0,0
569,0929565429688;	560,0;	0,0;	0,0
569,15771484375;	543,0;	0,0;	0,0
569,222412109375;	533,5;	0,0;	0,0
569,2870483398438;	529,5;	0,0;	0,0
569,3517456054688;	515,75;	0,0;	0,0
569,4163818359375;	499,0;	0,0;	0,0
569,4810180664062;	501,5;	0,0;	0,0
569,5455932617188;	479,75;	0,0;	0,0
569,6102294921875;	499,75;	0,0;	0,0
569,6748657226562;	484,75;	0,0;	0,0
569,7393188476562;	482,0;	0,0;	0,0
569,803955078125;	490,25;	0,0;	0,0
569,8685302734375;	511,25;	0,0;	0,0
569,9330444335938;	492,75;	0,0;	0,0
569,9974975585938;	548,75;	0,0;	0,0
570,0620727539062;	532,0;	0,0;	0,0
570,1265258789062;	502,0;	0,0;	0,0
570,1910400390625;	476,5;	0,0;	0,0
570,2554931640625;	484,25;	0,0;	0,0
570,3198852539062;	479,25;	0,0;	0,0
570,3843383789062;	545,5;	0,0;	0,0
570,44873046875;	545,0;	0,0;	0,0
570,51318359375;	559,75;	0,0;	0,0
570,5775756835938;	511,5;	0,0;	0,0
570,6419067382812;	505,5;	0,0;	0,0
570,706298828125;	541,25;	0,0;	0,0
570,7706298828125;	646,0;	0,0;	0,0
570,8349609375;	612,25;	0,0;	0,0
570,8992919921875;	509,75;	0,0;	0,0
570,963623046875;	512,75;	0,0;	0,0
571,02783203125;	496,0;	0,0;	0,0
571,0921020507812;	496,5;	0,0;	0,0
571,1563110351562;	503,0;	0,0;	0,0
571,2206420898438;	489,25;	0,0;	0,0
571,2848510742188;	490,25;	0,0;	0,0
571,3489990234375;	507,0;	0,0;	0,0
571,4132080078125;	488,25;	0,0;	0,0
571,4774169921875;	488,5;	0,0;	0,0
571,5415649414062;	459,0;	0,0;	0,0
571,6057739257812;	467,5;	0,0;	0,0
571,6698608398438;	522,5;	0,0;	0,0
571,7340087890625;	482,5;	0,0;	0,0
571,7981567382812;	479,75;	0,0;	0,0
571,8621826171875;	485,5;	0,0;	0,0
571,92626953125;	447,25;	0,0;	0,0
571,9904174804688;	480,75;	0,0;	0,0
572,0543823242188;	432,25;	0,0;	0,0
572,1184692382812;	492,25;	0,0;	0,0
572,1824951171875;	458,25;	0,0;	0,0
572,2464599609375;	479,0;	0,0;	0,0
572,3104858398438;	436,25;	0,0;	0,0
572,3744506835938;	458,0;	0,0;	0,0
572,4384155273438;	433,5;	0,0;	0,0
572,5023803710938;	446,5;	0,0;	0,0
572,5662841796875;	451,0;	0,0;	0,0
572,6301879882812;	466,5;	0,0;	0,0
572,6941528320312;	470,0;	0,0;	0,0
572,7579956054688;	434,75;	0,0;	0,0
572,8218383789062;	465,75;	0,0;	0,0
572,8856811523438;	406,0;	0,0;	0,0
572,9495849609375;	471,75;	0,0;	0,0
573,013427734375;	465,0;	0,0;	0,0
573,0772705078125;	480,75;	0,0;	0,0
573,1410522460938;	488,25;	0,0;	0,0
573,204833984375;	445,5;	0,0;	0,0
573,2686157226562;	463,75;	0,0;	0,0
573,3323364257812;	434,0;	0,0;	0,0
573,3961181640625;	434,75;	0,0;	0,0
573,4598388671875;	465,0;	0,0;	0,0
573,5235595703125;	450,75;	0,0;	0,0
573,5872192382812;	462,25;	0,0;	0,0
573,6509399414062;	456,5;	0,0;	0,0
573,714599609375;	432,75;	0,0;	0,0
573,7781982421875;	453,5;	0,0;	0,0
573,8418579101562;	457,25;	0,0;	0,0
573,905517578125;	450,0;	0,0;	0,0
573,9691162109375;	447,75;	0,0;	0,0
574,0327758789062;	452,75;	0,0;	0,0
574,0963745117188;	456,25;	0,0;	0,0
574,1598510742188;	444,0;	0,0;	0,0
574,2234497070312;	461,5;	0,0;	0,0
574,2869873046875;	438,75;	0,0;	0,0
574,3504638671875;	450,75;	0,0;	0,0
574,4140014648438;	459,0;	0,0;	0,0
574,4775390625;	446,0;	0,0;	0,0
574,5409545898438;	432,25;	0,0;	0,0
574,6044921875;	446,25;	0,0;	0,0
574,6679077148438;	441,75;	0,0;	0,0
574,7313232421875;	436,5;	0,0;	0,0
574,7947998046875;	449,5;	0,0;	0,0
574,858154296875;	480,0;	0,0;	0,0
574,9215698242188;	478,0;	0,0;	0,0
574,98486328125;	483,25;	0,0;	0,0
575,04833984375;	492,25;	0,0;	0,0
575,1116943359375;	517,75;	0,0;	0,0
575,1749877929688;	571,0;	0,0;	0,0
575,2383422851562;	505,0;	0,0;	0,0
575,3016357421875;	462,0;	0,0;	0,0
575,3648681640625;	473,5;	0,0;	0,0
575,42822265625;	434,25;	0,0;	0,0
575,491455078125;	457,5;	0,0;	0,0
575,5546264648438;	448,0;	0,0;	0,0
575,617919921875;	454,5;	0,0;	0,0
575,6810913085938;	444,25;	0,0;	0,0
575,7442626953125;	459,0;	0,0;	0,0
575,8074951171875;	447,25;	0,0;	0,0
575,8706665039062;	454,0;	0,0;	0,0
575,933837890625;	488,25;	0,0;	0,0
575,9969482421875;	493,5;	0,0;	0,0
576,06005859375;	483,0;	0,0;	0,0
576,1232299804688;	623,0;	0,0;	0,0
576,186279296875;	629,0;	0,0;	0,0
576,2493896484375;	556,0;	0,0;	0,0
576,3125;	446,25;	0,0;	0,0
576,37548828125;	445,0;	0,0;	0,0
576,4385375976562;	429,5;	0,0;	0,0
576,5015869140625;	443,0;	0,0;	0,0
576,5645751953125;	451,5;	0,0;	0,0
576,6275634765625;	460,5;	0,0;	0,0
576,6904907226562;	457,0;	0,0;	0,0
576,7534790039062;	437,25;	0,0;	0,0
576,8164672851562;	435,5;	0,0;	0,0
576,87939453125;	444,25;	0,0;	0,0
576,9423217773438;	454,25;	0,0;	0,0
577,0052490234375;	460,0;	0,0;	0,0
577,068115234375;	444,0;	0,0;	0,0
577,1309814453125;	413,75;	0,0;	0,0
577,1939086914062;	443,0;	0,0;	0,0
577,2567138671875;	443,5;	0,0;	0,0
577,3195190429688;	488,5;	0,0;	0,0
577,38232421875;	471,0;	0,0;	0,0
577,4451293945312;	496,75;	0,0;	0,0
577,5079956054688;	445,5;	0,0;	0,0
577,5706787109375;	444,25;	0,0;	0,0
577,6334838867188;	432,75;	0,0;	0,0
577,6962890625;	426,5;	0,0;	0,0
577,7589721679688;	442,75;	0,0;	0,0
577,8216552734375;	470,25;	0,0;	0,0
577,8843994140625;	453,5;	0,0;	0,0
577,947021484375;	462,25;	0,0;	0,0
578,009765625;	491,75;	0,0;	0,0
578,0723876953125;	534,75;	0,0;	0,0
578,135009765625;	505,0;	0,0;	0,0
578,1976928710938;	473,75;	0,0;	0,0
578,2601928710938;	445,5;	0,0;	0,0
578,3228149414062;	474,75;	0,0;	0,0
578,3854370117188;	476,25;	0,0;	0,0
578,447998046875;	453,5;	0,0;	0,0
578,5105590820312;	446,25;	0,0;	0,0
578,5731201171875;	446,75;	0,0;	0,0
578,6356201171875;	465,25;	0,0;	0,0
578,6981811523438;	457,5;	0,0;	0,0
578,7605590820312;	493,75;	0,0;	0,0
578,8231201171875;	487,5;	0,0;	0,0
578,8855590820312;	524,75;	0,0;	0,0
578,9479370117188;	516,5;	0,0;	0,0
579,0104370117188;	525,75;	0,0;	0,0
579,0728149414062;	476,75;	0,0;	0,0
579,1351928710938;	468,25;	0,0;	0,0
579,1976318359375;	506,25;	0,0;	0,0
579,260009765625;	470,75;	0,0;	0,0
579,3223266601562;	475,25;	0,0;	0,0
579,3847045898438;	482,25;	0,0;	0,0
579,447021484375;	472,5;	0,0;	0,0
579,5093383789062;	445,5;	0,0;	0,0
579,5716552734375;	463,75;	0,0;	0,0
579,6339111328125;	473,5;	0,0;	0,0
579,6962280273438;	505,0;	0,0;	0,0
579,7583618164062;	476,25;	0,0;	0,0
579,8206787109375;	464,75;	0,0;	0,0
579,8829345703125;	463,25;	0,0;	0,0
579,9451293945312;	516,25;	0,0;	0,0
580,0072631835938;	512,0;	0,0;	0,0
580,0695190429688;	481,0;	0,0;	0,0
580,131591796875;	504,75;	0,0;	0,0
580,1937866210938;	484,0;	0,0;	0,0
580,2559204101562;	491,5;	0,0;	0,0
580,3180541992188;	475,5;	0,0;	0,0
580,3801879882812;	480,5;	0,0;	0,0
580,4421997070312;	481,75;	0,0;	0,0
580,5043334960938;	483,0;	0,0;	0,0
580,56640625;	523,25;	0,0;	0,0
580,62841796875;	518,75;	0,0;	0,0
580,6904907226562;	474,75;	0,0;	0,0
580,7525024414062;	470,75;	0,0;	0,0
580,814453125;	483,5;	0,0;	0,0
580,87646484375;	460,0;	0,0;	0,0
580,9384765625;	477,25;	0,0;	0,0
581,0003662109375;	486,75;	0,0;	0,0
581,0623779296875;	483,25;	0,0;	0,0
581,124267578125;	480,25;	0,0;	0,0
581,1861572265625;	484,5;	0,0;	0,0
581,2481079101562;	462,5;	0,0;	0,0
581,3099365234375;	503,75;	0,0;	0,0
581,371826171875;	530,0;	0,0;	0,0
581,4336547851562;	514,5;	0,0;	0,0
581,4954833984375;	507,25;	0,0;	0,0
581,557373046875;	521,75;	0,0;	0,0
581,619140625;	504,25;	0,0;	0,0
581,680908203125;	469,5;	0,0;	0,0
581,7427368164062;	499,25;	0,0;	0,0
581,804443359375;	473,5;	0,0;	0,0
581,8662109375;	530,25;	0,0;	0,0
581,9279174804688;	488,0;	0,0;	0,0
581,9896850585938;	484,75;	0,0;	0,0
582,0513916015625;	498,0;	0,0;	0,0
582,113037109375;	473,25;	0,0;	0,0
582,1747436523438;	477,5;	0,0;	0,0
582,2363891601562;	505,0;	0,0;	0,0
582,2979736328125;	503,25;	0,0;	0,0
582,359619140625;	481,5;	0,0;	0,0
582,4212646484375;	482,5;	0,0;	0,0
582,4828491210938;	528,75;	0,0;	0,0
582,5444946289062;	504,5;	0,0;	0,0
582,6060180664062;	526,0;	0,0;	0,0
582,6675415039062;	504,25;	0,0;	0,0
582,7290649414062;	478,25;	0,0;	0,0
582,7905883789062;	511,75;	0,0;	0,0
582,8521118164062;	501,25;	0,0;	0,0
582,9136352539062;	497,0;	0,0;	0,0
582,9750366210938;	530,0;	0,0;	0,0
583,0365600585938;	504,0;	0,0;	0,0
583,0980224609375;	512,25;	0,0;	0,0
583,159423828125;	535,0;	0,0;	0,0
583,2208862304688;	512,0;	0,0;	0,0
583,2822875976562;	517,5;	0,0;	0,0
583,3436279296875;	497,5;	0,0;	0,0
583,405029296875;	515,5;	0,0;	0,0
583,46630859375;	506,5;	0,0;	0,0
583,5277099609375;	483,5;	0,0;	0,0
583,5890502929688;	481,75;	0,0;	0,0
583,6503295898438;	558,75;	0,0;	0,0
583,711669921875;	531,75;	0,0;	0,0
583,77294921875;	502,25;	0,0;	0,0
583,8341674804688;	523,25;	0,0;	0,0
583,8955078125;	491,75;	0,0;	0,0
583,9567260742188;	511,25;	0,0;	0,0
584,0179443359375;	506,25;	0,0;	0,0
584,0791015625;	515,0;	0,0;	0,0
584,1403198242188;	514,0;	0,0;	0,0
584,2014770507812;	493,75;	0,0;	0,0
584,2626342773438;	484,5;	0,0;	0,0
584,3237915039062;	487,0;	0,0;	0,0
584,3849487304688;	492,5;	0,0;	0,0
584,4459838867188;	518,5;	0,0;	0,0
584,5071411132812;	464,75;	0,0;	0,0
584,5682373046875;	507,75;	0,0;	0,0
584,6293334960938;	484,0;	0,0;	0,0
584,6903076171875;	541,25;	0,0;	0,0
584,7514038085938;	511,25;	0,0;	0,0
584,8123779296875;	542,75;	0,0;	0,0
584,8734130859375;	477,75;	0,0;	0,0
584,9344482421875;	521,5;	0,0;	0,0
584,9954223632812;	502,5;	0,0;	0,0
585,056396484375;	589,5;	0,0;	0,0
585,1173095703125;	530,25;	0,0;	0,0
585,1782836914062;	537,25;	0,0;	0,0
585,2391967773438;	563,75;	0,0;	0,0
585,3001098632812;	521,75;	0,0;	0,0
585,3609619140625;	548,75;	0,0;	0,0
585,4219360351562;	558,0;	0,0;	0,0
585,4827270507812;	561,5;	0,0;	0,0
585,5435791015625;	687,25;	0,0;	0,0
585,6044311523438;	835,25;	0,0;	0,0
585,6652221679688;	744,75;	0,0;	0,0
585,72607421875;	654,5;	0,0;	0,0
585,7868041992188;	618,75;	0,0;	0,0
585,8475952148438;	595,0;	0,0;	0,0
585,9083251953125;	574,5;	0,0;	0,0
585,9690551757812;	610,25;	0,0;	0,0
586,02978515625;	625,25;	0,0;	0,0
586,090576171875;	622,25;	0,0;	0,0
586,1511840820312;	629,0;	0,0;	0,0
586,2118530273438;	615,25;	0,0;	0,0
586,2725830078125;	575,0;	0,0;	0,0
586,3331909179688;	568,5;	0,0;	0,0
586,393798828125;	589,5;	0,0;	0,0
586,4544067382812;	544,0;	0,0;	0,0
586,5150146484375;	546,0;	0,0;	0,0
586,57568359375;	587,5;	0,0;	0,0
586,6361694335938;	646,25;	0,0;	0,0
586,6967163085938;	601,25;	0,0;	0,0
586,7573852539062;	619,0;	0,0;	0,0
586,8178100585938;	584,5;	0,0;	0,0
586,8783569335938;	615,25;	0,0;	0,0
586,9388427734375;	626,5;	0,0;	0,0
586,9993896484375;	664,5;	0,0;	0,0
587,0598754882812;	647,0;	0,0;	0,0
587,1202392578125;	640,25;	0,0;	0,0
587,1807250976562;	679,0;	0,0;	0,0
587,2410888671875;	645,75;	0,0;	0,0
587,301513671875;	626,25;	0,0;	0,0
587,3619384765625;	705,5;	0,0;	0,0
587,4223022460938;	702,0;	0,0;	0,0
587,482666015625;	672,5;	0,0;	0,0
587,5430297851562;	708,75;	0,0;	0,0
587,6033325195312;	714,5;	0,0;	0,0
587,6636352539062;	762,25;	0,0;	0,0
587,7239990234375;	771,0;	0,0;	0,0
587,7841796875;	810,75;	0,0;	0,0
587,8445434570312;	820,25;	0,0;	0,0
587,90478515625;	838,75;	0,0;	0,0
587,9649658203125;	917,5;	0,0;	0,0
588,0252075195312;	956,5;	0,0;	0,0
588,08544921875;	1032,25;	0,0;	0,0
588,1456298828125;	1066,0;	0,0;	0,0
588,205810546875;	1212,75;	0,0;	0,0
588,2659301757812;	1386,25;	0,0;	0,0
588,3261108398438;	1613,75;	0,0;	0,0
588,3862915039062;	1823,5;	0,0;	0,0
588,4464111328125;	2270,0;	0,0;	0,0
588,5065307617188;	2903,25;	0,0;	0,0
588,5665893554688;	4078,0;	0,0;	0,0
588,6266479492188;	6162,75;	0,0;	0,0
588,6867065429688;	9985,25;	0,0;	0,0
588,7467041015625;	16383,75;	0,0;	0,0
588,8067626953125;	16383,75;	0,0;	0,0
588,8667602539062;	16383,75;	0,0;	0,0
588,9267578125;	16383,75;	0,0;	0,0
588,9867553710938;	16383,75;	0,0;	0,0
589,0467529296875;	7607,0;	0,0;	0,0
589,106689453125;	5201,5;	0,0;	0,0
589,1666259765625;	4796,75;	0,0;	0,0
589,2265625;	5205,0;	0,0;	0,0
589,2864379882812;	7612,5;	0,0;	0,0
589,3463745117188;	13508,0;	0,0;	0,0
589,4061889648438;	16383,75;	0,0;	0,0
589,466064453125;	16383,75;	0,0;	0,0
589,5259399414062;	16383,75;	0,0;	0,0
589,5857543945312;	9384,75;	0,0;	0,0
589,6455688476562;	4452,0;	0,0;	0,0
589,7053833007812;	2977,5;	0,0;	0,0
589,76513671875;	2193,5;	0,0;	0,0
589,824951171875;	1796,25;	0,0;	0,0
589,8847045898438;	1524,25;	0,0;	0,0
589,9443969726562;	1295,0;	0,0;	0,0
590,004150390625;	1243,75;	0,0;	0,0
590,0638427734375;	1109,75;	0,0;	0,0
590,12353515625;	1094,0;	0,0;	0,0
590,1832275390625;	1008,0;	0,0;	0,0
590,2428588867188;	1006,5;	0,0;	0,0
590,302490234375;	952,75;	0,0;	0,0
590,3621215820312;	892,25;	0,0;	0,0
590,4217529296875;	930,0;	0,0;	0,0
590,4813842773438;	906,0;	0,0;	0,0
590,5409545898438;	858,75;	0,0;	0,0
590,6005249023438;	802,75;	0,0;	0,0
590,6600952148438;	810,0;	0,0;	0,0
590,7196044921875;	775,5;	0,0;	0,0
590,7791137695312;	795,0;	0,0;	0,0
590,8386840820312;	728,25;	0,0;	0,0
590,8981323242188;	761,25;	0,0;	0,0
590,9576416015625;	794,5;	0,0;	0,0
591,0170288085938;	735,75;	0,0;	0,0
591,0765380859375;	767,5;	0,0;	0,0
591,135986328125;	847,5;	0,0;	0,0
591,1953735351562;	854,0;	0,0;	0,0
591,2547607421875;	878,25;	0,0;	0,0
591,314208984375;	865,25;	0,0;	0,0
591,37353515625;	808,25;	0,0;	0,0
591,4329223632812;	740,75;	0,0;	0,0
591,4922485351562;	731,0;	0,0;	0,0
591,551513671875;	737,5;	0,0;	0,0
591,6109008789062;	654,0;	0,0;	0,0
591,670166015625;	712,5;	0,0;	0,0
591,7294921875;	729,25;	0,0;	0,0
591,7887573242188;	675,0;	0,0;	0,0
591,847900390625;	680,25;	0,0;	0,0
591,9071655273438;	702,0;	0,0;	0,0
591,9664306640625;	679,75;	0,0;	0,0
592,025634765625;	697,5;	0,0;	0,0
592,0847778320312;	657,0;	0,0;	0,0
592,1439819335938;	647,5;	0,0;	0,0
592,203125;	715,0;	0,0;	0,0
592,2622680664062;	667,25;	0,0;	0,0
592,3214111328125;	638,25;	0,0;	0,0
592,3804931640625;	659,0;	0,0;	0,0
592,4396362304688;	651,75;	0,0;	0,0
592,4987182617188;	650,0;	0,0;	0,0
592,5577392578125;	669,0;	0,0;	0,0
592,6167602539062;	623,0;	0,0;	0,0
592,6758422851562;	646,5;	0,0;	0,0
592,73486328125;	659,25;	0,0;	0,0
592,7938842773438;	722,5;	0,0;	0,0
592,8528442382812;	779,0;	0,0;	0,0
592,9118041992188;	705,0;	0,0;	0,0
592,9707641601562;	690,25;	0,0;	0,0
593,0297241210938;	646,0;	0,0;	0,0
593,0886840820312;	637,75;	0,0;	0,0
593,1475219726562;	667,0;	0,0;	0,0
593,2064819335938;	604,5;	0,0;	0,0
593,2652587890625;	590,0;	0,0;	0,0
593,32421875;	696,0;	0,0;	0,0
593,383056640625;	646,75;	0,0;	0,0
593,44189453125;	648,5;	0,0;	0,0
593,5006713867188;	610,25;	0,0;	0,0
593,5595703125;	573,5;	0,0;	0,0
593,6182861328125;	618,0;	0,0;	0,0
593,6770629882812;	548,75;	0,0;	0,0
593,73583984375;	571,25;	0,0;	0,0
593,7945556640625;	581,5;	0,0;	0,0
593,853271484375;	561,75;	0,0;	0,0
593,9119262695312;	592,0;	0,0;	0,0
593,970703125;	584,25;	0,0;	0,0
594,0293579101562;	564,5;	0,0;	0,0
594,0880126953125;	568,25;	0,0;	0,0
594,146728515625;	586,25;	0,0;	0,0
594,205322265625;	563,5;	0,0;	0,0
594,263916015625;	600,0;	0,0;	0,0
594,3225708007812;	610,75;	0,0;	0,0
594,3811645507812;	571,0;	0,0;	0,0
594,439697265625;	584,5;	0,0;	0,0
594,498291015625;	560,25;	0,0;	0,0
594,5567626953125;	564,0;	0,0;	0,0
594,6153564453125;	574,75;	0,0;	0,0
594,673828125;	539,5;	0,0;	0,0
594,7322998046875;	549,25;	0,0;	0,0
594,790771484375;	569,5;	0,0;	0,0
594,8492431640625;	540,5;	0,0;	0,0
594,90771484375;	540,25;	0,0;	0,0
594,9661254882812;	600,25;	0,0;	0,0
595,0245971679688;	601,0;	0,0;	0,0
595,0829467773438;	591,25;	0,0;	0,0
595,141357421875;	571,75;	0,0;	0,0
595,19970703125;	607,5;	0,0;	0,0
595,2581176757812;	582,0;	0,0;	0,0
595,3164672851562;	553,5;	0,0;	0,0
595,374755859375;	547,5;	0,0;	0,0
595,4330444335938;	555,75;	0,0;	0,0
595,4913330078125;	577,75;	0,0;	0,0
595,5496215820312;	580,5;	0,0;	0,0
595,60791015625;	558,25;	0,0;	0,0
595,6661987304688;	578,25;	0,0;	0,0
595,724365234375;	510,25;	0,0;	0,0
595,7825927734375;	548,25;	0,0;	0,0
595,8408203125;	571,75;	0,0;	0,0
595,8989868164062;	545,5;	0,0;	0,0
595,9572143554688;	572,0;	0,0;	0,0
596,0153198242188;	572,5;	0,0;	0,0
596,073486328125;	545,5;	0,0;	0,0
596,1315307617188;	550,75;	0,0;	0,0
596,1896362304688;	576,75;	0,0;	0,0
596,247802734375;	557,0;	0,0;	0,0
596,3058471679688;	549,25;	0,0;	0,0
596,3638916015625;	563,75;	0,0;	0,0
596,4219970703125;	553,25;	0,0;	0,0
596,47998046875;	556,25;	0,0;	0,0
596,5380249023438;	543,5;	0,0;	0,0
596,5960083007812;	609,5;	0,0;	0,0
596,6539916992188;	532,75;	0,0;	0,0
596,7119750976562;	588,0;	0,0;	0,0
596,7698364257812;	540,5;	0,0;	0,0
596,8278198242188;	586,75;	0,0;	0,0
596,8858032226562;	540,25;	0,0;	0,0
596,9436645507812;	532,25;	0,0;	0,0
597,0015869140625;	570,0;	0,0;	0,0
597,0595092773438;	560,75;	0,0;	0,0
597,1173095703125;	568,25;	0,0;	0,0
597,1751098632812;	543,0;	0,0;	0,0
597,2329711914062;	597,5;	0,0;	0,0
597,290771484375;	548,5;	0,0;	0,0
597,3486328125;	575,75;	0,0;	0,0
597,4063110351562;	598,0;	0,0;	0,0
597,4641723632812;	569,5;	0,0;	0,0
597,5219116210938;	598,25;	0,0;	0,0
597,57958984375;	592,25;	0,0;	0,0
597,6373291015625;	553,75;	0,0;	0,0
597,695068359375;	541,5;	0,0;	0,0
597,7527465820312;	569,75;	0,0;	0,0
597,8104248046875;	555,5;	0,0;	0,0
597,8681030273438;	561,0;	0,0;	0,0
597,9257202148438;	528,25;	0,0;	0,0
597,9833374023438;	607,25;	0,0;	0,0
598,0408935546875;	526,75;	0,0;	0,0
598,0985107421875;	584,75;	0,0;	0,0
598,1561279296875;	626,5;	0,0;	0,0
598,2136840820312;	658,0;	0,0;	0,0
598,271240234375;	650,0;	0,0;	0,0
598,3287353515625;	636,25;	0,0;	0,0
598,3862915039062;	639,75;	0,0;	0,0
598,44384765625;	598,75;	0,0;	0,0
598,5012817382812;	565,5;	0,0;	0,0
598,5587158203125;	619,0;	0,0;	0,0
598,6162109375;	601,0;	0,0;	0,0
598,673583984375;	583,25;	0,0;	0,0
598,7310791015625;	550,75;	0,0;	0,0
598,7885131835938;	556,25;	0,0;	0,0
598,8458251953125;	530,5;	0,0;	0,0
598,9032592773438;	522,5;	0,0;	0,0
598,9605712890625;	555,0;	0,0;	0,0
599,0179443359375;	547,25;	0,0;	0,0
599,0753173828125;	553,5;	0,0;	0,0
599,132568359375;	531,25;	0,0;	0,0
599,1898803710938;	550,25;	0,0;	0,0
599,2472534179688;	558,0;	0,0;	0,0
599,3043823242188;	552,0;	0,0;	0,0
599,3616943359375;	524,25;	0,0;	0,0
599,4189453125;	516,0;	0,0;	0,0
599,4761352539062;	529,0;	0,0;	0,0
599,5333251953125;	542,0;	0,0;	0,0
599,5905151367188;	545,0;	0,0;	0,0
599,647705078125;	554,0;	0,0;	0,0
599,7049560546875;	512,0;	0,0;	0,0
599,7620239257812;	554,0;	0,0;	0,0
599,8191528320312;	514,0;	0,0;	0,0
599,8762817382812;	508,0;	0,0;	0,0
599,933349609375;	557,0;	0,0;	0,0
599,9904174804688;	541,0;	0,0;	0,0
600,0475463867188;	534,5;	0,0;	0,0
600,1045532226562;	585,0;	0,0;	0,0
600,16162109375;	615,5;	0,0;	0,0
600,2186279296875;	590,5;	0,0;	0,0
600,2755737304688;	577,0;	0,0;	0,0
600,3326416015625;	504,75;	0,0;	0,0
600,3895874023438;	597,5;	0,0;	0,0
600,446533203125;	503,75;	0,0;	0,0
600,5034790039062;	528,25;	0,0;	0,0
600,5603637695312;	523,5;	0,0;	0,0
600,6172485351562;	548,75;	0,0;	0,0
600,6742553710938;	594,75;	0,0;	0,0
600,7310791015625;	604,75;	0,0;	0,0
600,7879028320312;	584,5;	0,0;	0,0
600,8447265625;	534,75;	0,0;	0,0
600,9015502929688;	523,75;	0,0;	0,0
600,9584350585938;	532,75;	0,0;	0,0
601,0151977539062;	504,75;	0,0;	0,0
601,0719604492188;	479,75;	0,0;	0,0
601,1287231445312;	534,75;	0,0;	0,0
601,185546875;	547,75;	0,0;	0,0
601,2422485351562;	509,75;	0,0;	0,0
601,2989501953125;	554,25;	0,0;	0,0
601,355712890625;	558,75;	0,0;	0,0
601,412353515625;	511,25;	0,0;	0,0
601,468994140625;	546,75;	0,0;	0,0
601,5256958007812;	566,75;	0,0;	0,0
601,5823364257812;	544,5;	0,0;	0,0
601,6389770507812;	485,75;	0,0;	0,0
601,695556640625;	521,0;	0,0;	0,0
601,7521362304688;	565,25;	0,0;	0,0
601,8087158203125;	616,75;	0,0;	0,0
601,8652954101562;	644,75;	0,0;	0,0
601,9218139648438;	616,25;	0,0;	0,0
601,9783935546875;	603,5;	0,0;	0,0
602,034912109375;	611,5;	0,0;	0,0
602,0913696289062;	561,75;	0,0;	0,0
602,1478271484375;	597,75;	0,0;	0,0
602,204345703125;	677,5;	0,0;	0,0
602,2608032226562;	715,75;	0,0;	0,0
602,3171997070312;	618,75;	0,0;	0,0
602,3736572265625;	563,75;	0,0;	0,0
602,4300537109375;	562,75;	0,0;	0,0
602,4864501953125;	541,75;	0,0;	0,0
602,5427856445312;	566,25;	0,0;	0,0
602,5991821289062;	569,75;	0,0;	0,0
602,655517578125;	544,25;	0,0;	0,0
602,7117919921875;	519,25;	0,0;	0,0
602,7681274414062;	551,75;	0,0;	0,0
602,824462890625;	525,0;	0,0;	0,0
602,8806762695312;	473,75;	0,0;	0,0
602,93701171875;	522,0;	0,0;	0,0
602,9932250976562;	485,0;	0,0;	0,0
603,0494384765625;	490,75;	0,0;	0,0
603,105712890625;	468,0;	0,0;	0,0
603,161865234375;	503,75;	0,0;	0,0
603,2180786132812;	509,5;	0,0;	0,0
603,2742309570312;	514,5;	0,0;	0,0
603,3303833007812;	486,25;	0,0;	0,0
603,3865356445312;	505,5;	0,0;	0,0
603,4426879882812;	489,75;	0,0;	0,0
603,498779296875;	509,75;	0,0;	0,0
603,5548706054688;	489,75;	0,0;	0,0
603,6109008789062;	514,5;	0,0;	0,0
603,6669311523438;	500,75;	0,0;	0,0
603,7230224609375;	457,75;	0,0;	0,0
603,7789916992188;	506,25;	0,0;	0,0
603,8350219726562;	491,75;	0,0;	0,0
603,8909912109375;	506,25;	0,0;	0,0
603,947021484375;	510,75;	0,0;	0,0
604,0030517578125;	496,75;	0,0;	0,0
604,0589599609375;	508,5;	0,0;	0,0
604,1148681640625;	483,25;	0,0;	0,0
604,1707763671875;	521,0;	0,0;	0,0
604,2266845703125;	535,75;	0,0;	0,0
604,2825317382812;	482,75;	0,0;	0,0
604,3385009765625;	466,75;	0,0;	0,0
604,394287109375;	512,0;	0,0;	0,0
604,4501342773438;	469,5;	0,0;	0,0
604,5059204101562;	519,25;	0,0;	0,0
604,5617065429688;	489,25;	0,0;	0,0
604,6175537109375;	516,75;	0,0;	0,0
604,67333984375;	503,5;	0,0;	0,0
604,7290649414062;	498,25;	0,0;	0,0
604,7847900390625;	495,5;	0,0;	0,0
604,8405151367188;	483,5;	0,0;	0,0
604,896240234375;	479,75;	0,0;	0,0
604,9519653320312;	510,75;	0,0;	0,0
605,007568359375;	491,0;	0,0;	0,0
605,0632934570312;	491,75;	0,0;	0,0
605,118896484375;	505,25;	0,0;	0,0
605,174560546875;	500,25;	0,0;	0,0
605,2301635742188;	475,75;	0,0;	0,0
605,2857666015625;	512,0;	0,0;	0,0
605,34130859375;	549,25;	0,0;	0,0
605,3969116210938;	564,0;	0,0;	0,0
605,4524536132812;	518,5;	0,0;	0,0
605,5079956054688;	530,25;	0,0;	0,0
605,5635375976562;	503,0;	0,0;	0,0
605,6190185546875;	518,0;	0,0;	0,0
605,674560546875;	491,5;	0,0;	0,0
605,7299194335938;	491,25;	0,0;	0,0
605,7854614257812;	506,5;	0,0;	0,0
605,8409423828125;	475,5;	0,0;	0,0
605,896240234375;	502,0;	0,0;	0,0
605,9517211914062;	519,75;	0,0;	0,0
606,0070190429688;	486,5;	0,0;	0,0
606,0625;	517,75;	0,0;	0,0
606,1178588867188;	489,25;	0,0;	0,0
606,1732177734375;	534,5;	0,0;	0,0
606,228515625;	502,25;	0,0;	0,0
606,2838745117188;	531,75;	0,0;	0,0
606,339111328125;	594,25;	0,0;	0,0
606,3944091796875;	752,5;	0,0;	0,0
606,44970703125;	615,75;	0,0;	0,0
606,5048828125;	552,5;	0,0;	0,0
606,5601806640625;	468,75;	0,0;	0,0
606,6153564453125;	474,0;	0,0;	0,0
606,6705322265625;	461,25;	0,0;	0,0
606,7257690429688;	462,75;	0,0;	0,0
606,781005859375;	472,75;	0,0;	0,0
606,8360595703125;	449,25;	0,0;	0,0
606,8912353515625;	473,0;	0,0;	0,0
606,9463500976562;	436,5;	0,0;	0,0
607,0014038085938;	472,25;	0,0;	0,0
607,0565795898438;	492,75;	0,0;	0,0
607,1116333007812;	471,5;	0,0;	0,0
607,1666870117188;	491,5;	0,0;	0,0
607,2216796875;	498,75;	0,0;	0,0
607,2767333984375;	463,0;	0,0;	0,0
607,331787109375;	482,25;	0,0;	0,0
607,38671875;	478,75;	0,0;	0,0
607,4417114257812;	458,25;	0,0;	0,0
607,4967041015625;	466,25;	0,0;	0,0
607,5515747070312;	474,0;	0,0;	0,0
607,6065673828125;	486,0;	0,0;	0,0
607,6615600585938;	505,75;	0,0;	0,0
607,7163696289062;	525,0;	0,0;	0,0
607,771240234375;	492,5;	0,0;	0,0
607,8261108398438;	477,0;	0,0;	0,0
607,8809814453125;	489,0;	0,0;	0,0
607,935791015625;	479,75;	0,0;	0,0
607,9906005859375;	480,0;	0,0;	0,0
608,0454711914062;	438,75;	0,0;	0,0
608,1001586914062;	468,0;	0,0;	0,0
608,1549682617188;	472,5;	0,0;	0,0
608,2097778320312;	495,75;	0,0;	0,0
608,2645263671875;	502,0;	0,0;	0,0
608,3191528320312;	527,75;	0,0;	0,0
608,3739013671875;	473,0;	0,0;	0,0
608,4285888671875;	479,75;	0,0;	0,0
608,4832153320312;	483,25;	0,0;	0,0
608,5379638671875;	510,0;	0,0;	0,0
608,5925903320312;	503,75;	0,0;	0,0
608,647216796875;	468,5;	0,0;	0,0
608,7017822265625;	463,75;	0,0;	0,0
608,7564086914062;	467,0;	0,0;	0,0
608,8109741210938;	503,5;	0,0;	0,0
608,8656005859375;	495,25;	0,0;	0,0
608,9201049804688;	452,75;	0,0;	0,0
608,974609375;	471,25;	0,0;	0,0
609,0291137695312;	487,0;	0,0;	0,0
609,0836181640625;	507,75;	0,0;	0,0
609,1381225585938;	461,5;	0,0;	0,0
609,1925659179688;	472,75;	0,0;	0,0
609,2470092773438;	524,0;	0,0;	0,0
609,3014526367188;	506,0;	0,0;	0,0
609,3558349609375;	494,25;	0,0;	0,0
609,4102783203125;	508,75;	0,0;	0,0
609,4646606445312;	530,75;	0,0;	0,0
609,51904296875;	526,5;	0,0;	0,0
609,5734252929688;	531,0;	0,0;	0,0
609,627685546875;	529,0;	0,0;	0,0
609,6820678710938;	502,25;	0,0;	0,0
609,7363891601562;	508,75;	0,0;	0,0
609,7906494140625;	503,75;	0,0;	0,0
609,844970703125;	526,0;	0,0;	0,0
609,899169921875;	508,0;	0,0;	0,0
609,953369140625;	546,0;	0,0;	0,0
610,0076293945312;	546,75;	0,0;	0,0
610,0618286132812;	746,25;	0,0;	0,0
610,1160888671875;	924,0;	0,0;	0,0
610,170166015625;	961,0;	0,0;	0,0
610,224365234375;	874,5;	0,0;	0,0
610,2785034179688;	685,75;	0,0;	0,0
610,3327026367188;	529,0;	0,0;	0,0
610,3867797851562;	519,0;	0,0;	0,0
610,4408569335938;	524,0;	0,0;	0,0
610,4949340820312;	485,25;	0,0;	0,0
610,549072265625;	501,25;	0,0;	0,0
610,6030883789062;	509,0;	0,0;	0,0
610,6571044921875;	519,0;	0,0;	0,0
610,7111206054688;	523,0;	0,0;	0,0
610,7650756835938;	511,0;	0,0;	0,0
610,819091796875;	499,0;	0,0;	0,0
610,8731079101562;	497,0;	0,0;	0,0
610,9270629882812;	496,0;	0,0;	0,0
610,98095703125;	517,0;	0,0;	0,0
611,034912109375;	514,5;	0,0;	0,0
611,0887451171875;	487,0;	0,0;	0,0
611,1427001953125;	512,0;	0,0;	0,0
611,1965942382812;	506,0;	0,0;	0,0
611,2503662109375;	468,5;	0,0;	0,0
611,30419921875;	519,75;	0,0;	0,0
611,3580322265625;	498,0;	0,0;	0,0
611,411865234375;	507,0;	0,0;	0,0
611,4656982421875;	513,0;	0,0;	0,0
611,5194702148438;	501,75;	0,0;	0,0
611,5731811523438;	490,25;	0,0;	0,0
611,626953125;	518,0;	0,0;	0,0
611,6806640625;	521,5;	0,0;	0,0
611,734375;	526,5;	0,0;	0,0
611,7880859375;	487,75;	0,0;	0,0
611,8417358398438;	515,5;	0,0;	0,0
611,8953857421875;	553,5;	0,0;	0,0
611,9490356445312;	645,75;	0,0;	0,0
612,002685546875;	890,75;	0,0;	0,0
612,0562744140625;	1116,75;	0,0;	0,0
612,1099243164062;	1025,75;	0,0;	0,0
612,1635131835938;	794,75;	0,0;	0,0
612,2171020507812;	627,25;	0,0;	0,0
612,2705688476562;	518,75;	0,0;	0,0
612,3241577148438;	552,75;	0,0;	0,0
612,3776245117188;	485,25;	0,0;	0,0
612,4310913085938;	506,25;	0,0;	0,0
612,484619140625;	524,0;	0,0;	0,0
612,5380859375;	485,75;	0,0;	0,0
612,591552734375;	520,25;	0,0;	0,0
612,64501953125;	521,0;	0,0;	0,0
612,6983642578125;	546,0;	0,0;	0,0
612,7518310546875;	505,5;	0,0;	0,0
612,80517578125;	495,75;	0,0;	0,0
612,8585205078125;	491,5;	0,0;	0,0
612,9119262695312;	525,0;	0,0;	0,0
612,9652709960938;	523,0;	0,0;	0,0
613,0185546875;	525,75;	0,0;	0,0
613,0718383789062;	488,75;	0,0;	0,0
613,1251220703125;	506,75;	0,0;	0,0
613,1784057617188;	490,5;	0,0;	0,0
613,2317504882812;	482,5;	0,0;	0,0
613,2849731445312;	541,75;	0,0;	0,0
613,338134765625;	514,75;	0,0;	0,0
613,391357421875;	585,25;	0,0;	0,0
613,4445190429688;	747,75;	0,0;	0,0
613,4977416992188;	956,75;	0,0;	0,0
613,5509033203125;	945,75;	0,0;	0,0
613,6040649414062;	957,25;	0,0;	0,0
613,6572265625;	778,0;	0,0;	0,0
613,7102661132812;	631,25;	0,0;	0,0
613,7633666992188;	513,75;	0,0;	0,0
613,8164672851562;	490,75;	0,0;	0,0
613,8695068359375;	515,0;	0,0;	0,0
613,922607421875;	540,0;	0,0;	0,0
613,9755859375;	618,0;	0,0;	0,0
614,028564453125;	659,25;	0,0;	0,0
614,0816040039062;	598,25;	0,0;	0,0
614,1346435546875;	531,0;	0,0;	0,0
614,1875610351562;	490,5;	0,0;	0,0
614,2405395507812;	510,0;	0,0;	0,0
614,2933959960938;	493,0;	0,0;	0,0
614,3463745117188;	509,5;	0,0;	0,0
614,3992919921875;	514,5;	0,0;	0,0
614,4521484375;	499,75;	0,0;	0,0
614,5050048828125;	518,5;	0,0;	0,0
614,5578002929688;	514,0;	0,0;	0,0
614,6106567382812;	509,75;	0,0;	0,0
614,6635131835938;	570,75;	0,0;	0,0
614,7163696289062;	548,25;	0,0;	0,0
614,7691040039062;	527,25;	0,0;	0,0
614,8218994140625;	505,0;	0,0;	0,0
614,8746337890625;	546,25;	0,0;	0,0
614,9273681640625;	526,25;	0,0;	0,0
614,9801025390625;	528,0;	0,0;	0,0
615,0327758789062;	542,5;	0,0;	0,0
615,0855102539062;	565,0;	0,0;	0,0
615,1381225585938;	497,0;	0,0;	0,0
615,1908569335938;	559,5;	0,0;	0,0
615,2434692382812;	604,5;	0,0;	0,0
615,2960815429688;	621,75;	0,0;	0,0
615,3486938476562;	578,0;	0,0;	0,0
615,4012451171875;	535,5;	0,0;	0,0
615,453857421875;	542,75;	0,0;	0,0
615,5064697265625;	551,75;	0,0;	0,0
615,5589599609375;	569,25;	0,0;	0,0
615,6114501953125;	616,0;	0,0;	0,0
615,6640014648438;	570,75;	0,0;	0,0
615,7164306640625;	592,25;	0,0;	0,0
615,7689819335938;	600,75;	0,0;	0,0
615,8214111328125;	646,5;	0,0;	0,0
615,8738403320312;	711,5;	0,0;	0,0
615,9263305664062;	866,25;	0,0;	0,0
615,9786987304688;	1089,0;	0,0;	0,0
616,0310668945312;	1416,75;	0,0;	0,0
616,08349609375;	1651,75;	0,0;	0,0
616,1358642578125;	1178,75;	0,0;	0,0
616,1881713867188;	767,0;	0,0;	0,0
616,2405395507812;	629,5;	0,0;	0,0
616,2928466796875;	585,75;	0,0;	0,0
616,3450927734375;	603,75;	0,0;	0,0
616,3974609375;	603,25;	0,0;	0,0
616,4496459960938;	615,0;	0,0;	0,0
616,501953125;	536,25;	0,0;	0,0
616,5540771484375;	649,75;	0,0;	0,0
616,6063842773438;	563,75;	0,0;	0,0
616,6585693359375;	592,0;	0,0;	0,0
616,7107543945312;	628,0;	0,0;	0,0
616,7628784179688;	682,0;	0,0;	0,0
616,8150634765625;	734,75;	0,0;	0,0
616,8671264648438;	671,75;	0,0;	0,0
616,9193115234375;	627,0;	0,0;	0,0
616,971435546875;	605,5;	0,0;	0,0
617,0234985351562;	565,0;	0,0;	0,0
617,0756225585938;	569,25;	0,0;	0,0
617,1275634765625;	561,25;	0,0;	0,0
617,1796875;	600,5;	0,0;	0,0
617,231689453125;	562,25;	0,0;	0,0
617,28369140625;	541,0;	0,0;	0,0
617,3356323242188;	519,0;	0,0;	0,0
617,3876953125;	544,5;	0,0;	0,0
617,4395751953125;	542,75;	0,0;	0,0
617,4915161132812;	540,0;	0,0;	0,0
617,54345703125;	535,0;	0,0;	0,0
617,5953369140625;	543,0;	0,0;	0,0
617,6472778320312;	579,25;	0,0;	0,0
617,6990966796875;	549,25;	0,0;	0,0
617,7509765625;	556,0;	0,0;	0,0
617,8027954101562;	583,5;	0,0;	0,0
617,8546142578125;	572,0;	0,0;	0,0
617,906494140625;	582,0;	0,0;	0,0
617,9581909179688;	604,0;	0,0;	0,0
618,010009765625;	571,0;	0,0;	0,0
618,061767578125;	596,75;	0,0;	0,0
618,113525390625;	565,5;	0,0;	0,0
618,1652221679688;	543,0;	0,0;	0,0
618,2169799804688;	561,5;	0,0;	0,0
618,2686157226562;	594,0;	0,0;	0,0
618,3203125;	548,25;	0,0;	0,0
618,3720092773438;	573,75;	0,0;	0,0
618,423583984375;	581,5;	0,0;	0,0
618,4752197265625;	561,25;	0,0;	0,0
618,5267944335938;	546,0;	0,0;	0,0
618,5784301757812;	576,0;	0,0;	0,0
618,6300048828125;	550,75;	0,0;	0,0
618,681640625;	571,25;	0,0;	0,0
618,7330932617188;	566,0;	0,0;	0,0
618,7846069335938;	559,5;	0,0;	0,0
618,8361206054688;	600,5;	0,0;	0,0
618,8876342773438;	614,75;	0,0;	0,0
618,9391479492188;	679,0;	0,0;	0,0
618,9905395507812;	867,5;	0,0;	0,0
619,0419921875;	833,75;	0,0;	0,0
619,0933837890625;	664,25;	0,0;	0,0
619,1448364257812;	557,75;	0,0;	0,0
619,1962890625;	576,0;	0,0;	0,0
619,2476196289062;	552,25;	0,0;	0,0
619,2990112304688;	550,75;	0,0;	0,0
619,3504028320312;	536,5;	0,0;	0,0
619,4016723632812;	545,25;	0,0;	0,0
619,4530029296875;	539,5;	0,0;	0,0
619,5043334960938;	537,5;	0,0;	0,0
619,5555419921875;	535,25;	0,0;	0,0
619,6068115234375;	557,75;	0,0;	0,0
619,6580810546875;	562,0;	0,0;	0,0
619,7092895507812;	567,25;	0,0;	0,0
619,7605590820312;	543,25;	0,0;	0,0
619,8117065429688;	556,5;	0,0;	0,0
619,8628540039062;	537,75;	0,0;	0,0
619,9140014648438;	565,5;	0,0;	0,0
619,9652099609375;	533,0;	0,0;	0,0
620,0162963867188;	515,0;	0,0;	0,0
620,0675048828125;	560,25;	0,0;	0,0
620,1185913085938;	557,75;	0,0;	0,0
620,169677734375;	531,75;	0,0;	0,0
620,2206420898438;	541,5;	0,0;	0,0
620,2717895507812;	557,5;	0,0;	0,0
620,3228149414062;	562,0;	0,0;	0,0
620,373779296875;	546,75;	0,0;	0,0
620,4248046875;	574,75;	0,0;	0,0
620,4757690429688;	547,25;	0,0;	0,0
620,5267333984375;	539,75;	0,0;	0,0
620,5777587890625;	582,5;	0,0;	0,0
620,628662109375;	564,75;	0,0;	0,0
620,6795654296875;	528,75;	0,0;	0,0
620,73046875;	580,5;	0,0;	0,0
620,7813110351562;	562,25;	0,0;	0,0
620,8322143554688;	534,75;	0,0;	0,0
620,883056640625;	526,25;	0,0;	0,0
620,933837890625;	537,25;	0,0;	0,0
620,9846801757812;	533,25;	0,0;	0,0
621,0354614257812;	555,0;	0,0;	0,0
621,0863037109375;	556,25;	0,0;	0,0
621,1370849609375;	539,0;	0,0;	0,0
621,1878662109375;	582,0;	0,0;	0,0
621,2385864257812;	577,0;	0,0;	0,0
621,2892456054688;	564,0;	0,0;	0,0
621,3399047851562;	560,0;	0,0;	0,0
621,3906860351562;	541,5;	0,0;	0,0
621,4413452148438;	587,0;	0,0;	0,0
621,491943359375;	517,5;	0,0;	0,0
621,5426025390625;	539,5;	0,0;	0,0
621,5931396484375;	562,5;	0,0;	0,0
621,643798828125;	557,75;	0,0;	0,0
621,6943969726562;	582,5;	0,0;	0,0
621,7449951171875;	555,25;	0,0;	0,0
621,7955322265625;	599,75;	0,0;	0,0
621,8460693359375;	571,75;	0,0;	0,0
621,8965454101562;	546,25;	0,0;	0,0
621,9470825195312;	521,75;	0,0;	0,0
621,9976196289062;	550,0;	0,0;	0,0
622,0480346679688;	566,75;	0,0;	0,0
622,0985107421875;	582,25;	0,0;	0,0
622,1488647460938;	596,5;	0,0;	0,0
622,1993408203125;	585,75;	0,0;	0,0
622,249755859375;	559,5;	0,0;	0,0
622,3001708984375;	560,75;	0,0;	0,0
622,3505249023438;	532,5;	0,0;	0,0
622,4008178710938;	546,75;	0,0;	0,0
622,451171875;	558,75;	0,0;	0,0
622,5015258789062;	530,25;	0,0;	0,0
622,5518798828125;	550,75;	0,0;	0,0
622,6021118164062;	569,25;	0,0;	0,0
622,6524047851562;	558,75;	0,0;	0,0
622,7025756835938;	590,25;	0,0;	0,0
622,7528686523438;	588,5;	0,0;	0,0
622,8031616210938;	661,75;	0,0;	0,0
622,853271484375;	747,0;	0,0;	0,0
622,9034423828125;	866,75;	0,0;	0,0
622,95361328125;	912,5;	0,0;	0,0
623,0037841796875;	711,75;	0,0;	0,0
623,053955078125;	630,75;	0,0;	0,0
623,1040649414062;	583,0;	0,0;	0,0
623,1541137695312;	586,25;	0,0;	0,0
623,2042236328125;	565,25;	0,0;	0,0
623,2542724609375;	575,25;	0,0;	0,0
623,3043823242188;	583,75;	0,0;	0,0
623,3544311523438;	589,0;	0,0;	0,0
623,4044189453125;	527,5;	0,0;	0,0
623,4544677734375;	528,5;	0,0;	0,0
623,50439453125;	543,5;	0,0;	0,0
623,5543823242188;	560,75;	0,0;	0,0
623,6043701171875;	566,0;	0,0;	0,0
623,6543579101562;	541,75;	0,0;	0,0
623,7042236328125;	566,25;	0,0;	0,0
623,754150390625;	533,25;	0,0;	0,0
623,803955078125;	530,25;	0,0;	0,0
623,8538818359375;	558,0;	0,0;	0,0
623,9037475585938;	550,75;	0,0;	0,0
623,9535522460938;	494,5;	0,0;	0,0
624,0033569335938;	548,5;	0,0;	0,0
624,0531616210938;	529,5;	0,0;	0,0
624,1029663085938;	508,0;	0,0;	0,0
624,1527709960938;	518,75;	0,0;	0,0
624,2025756835938;	542,25;	0,0;	0,0
624,2522583007812;	549,25;	0,0;	0,0
624,3019409179688;	526,25;	0,0;	0,0
624,3516235351562;	543,5;	0,0;	0,0
624,4013671875;	582,25;	0,0;	0,0
624,4510498046875;	652,5;	0,0;	0,0
624,5006713867188;	700,0;	0,0;	0,0
624,5503540039062;	603,5;	0,0;	0,0
624,599853515625;	596,25;	0,0;	0,0
624,6495361328125;	564,5;	0,0;	0,0
624,6991577148438;	533,25;	0,0;	0,0
624,7486572265625;	557,5;	0,0;	0,0
624,7982177734375;	498,25;	0,0;	0,0
624,8477172851562;	546,5;	0,0;	0,0
624,8972778320312;	526,25;	0,0;	0,0
624,94677734375;	547,5;	0,0;	0,0
624,9962768554688;	613,25;	0,0;	0,0
625,0457763671875;	648,0;	0,0;	0,0
625,09521484375;	741,25;	0,0;	0,0
625,1446533203125;	685,5;	0,0;	0,0
625,194091796875;	575,25;	0,0;	0,0
625,2434692382812;	574,5;	0,0;	0,0
625,2928466796875;	569,0;	0,0;	0,0
625,3422241210938;	571,5;	0,0;	0,0
625,3914794921875;	534,25;	0,0;	0,0
625,44091796875;	543,0;	0,0;	0,0
625,490234375;	542,75;	0,0;	0,0
625,53955078125;	559,0;	0,0;	0,0
625,5888061523438;	552,25;	0,0;	0,0
625,6380615234375;	526,0;	0,0;	0,0
625,687255859375;	527,0;	0,0;	0,0
625,736572265625;	512,25;	0,0;	0,0
625,7858276367188;	0,0;	0,0;	0,0
