-0.5	0.0
Integration time [ms]:	1.05
Averaging Nr. [scans]:1
Smoothing Nr. [pixels]:0
Data measured with spectrometer [name]:b'1703278U8'
Wave	;Sample	;Dark	;Reference	;Scope	
[nm]	;[counts]	;[counts]	;[counts]	
 
619,9722900390625;	400,75;	0,0;	0,0
620,0406494140625;	370,0;	0,0;	0,0
620,1089477539062;	371,25;	0,0;	0,0
620,17724609375;	389,5;	0,0;	0,0
620,2455444335938;	361,0;	0,0;	0,0
620,3137817382812;	409,25;	0,0;	0,0
620,382080078125;	399,5;	0,0;	0,0
620,4503173828125;	408,5;	0,0;	0,0
620,5185546875;	394,25;	0,0;	0,0
620,5867919921875;	420,0;	0,0;	0,0
620,6549072265625;	409,5;	0,0;	0,0
620,72314453125;	404,75;	0,0;	0,0
620,7913208007812;	423,75;	0,0;	0,0
620,8594360351562;	388,5;	0,0;	0,0
620,9276123046875;	419,0;	0,0;	0,0
620,9957885742188;	434,75;	0,0;	0,0
621,0638427734375;	422,25;	0,0;	0,0
621,1319580078125;	473,25;	0,0;	0,0
621,2000732421875;	429,25;	0,0;	0,0
621,2681274414062;	422,0;	0,0;	0,0
621,336181640625;	428,25;	0,0;	0,0
621,404296875;	466,5;	0,0;	0,0
621,4722900390625;	469,5;	0,0;	0,0
621,540283203125;	446,5;	0,0;	0,0
621,6083374023438;	467,5;	0,0;	0,0
621,67626953125;	462,5;	0,0;	0,0
621,7442626953125;	485,75;	0,0;	0,0
621,812255859375;	468,75;	0,0;	0,0
621,8801879882812;	477,75;	0,0;	0,0
621,9481201171875;	557,25;	0,0;	0,0
622,0159912109375;	510,75;	0,0;	0,0
622,0839233398438;	488,25;	0,0;	0,0
622,15185546875;	491,75;	0,0;	0,0
622,2196655273438;	481,25;	0,0;	0,0
622,2875366210938;	494,0;	0,0;	0,0
622,3554077148438;	494,75;	0,0;	0,0
622,4232177734375;	520,0;	0,0;	0,0
622,4910278320312;	505,75;	0,0;	0,0
622,5588989257812;	544,0;	0,0;	0,0
622,6266479492188;	509,5;	0,0;	0,0
622,6943969726562;	535,25;	0,0;	0,0
622,76220703125;	526,5;	0,0;	0,0
622,8298950195312;	570,75;	0,0;	0,0
622,8976440429688;	617,0;	0,0;	0,0
622,9653930664062;	613,25;	0,0;	0,0
623,0330810546875;	725,0;	0,0;	0,0
623,1007080078125;	827,75;	0,0;	0,0
623,1683349609375;	786,75;	0,0;	0,0
623,2360229492188;	609,5;	0,0;	0,0
623,3037109375;	578,5;	0,0;	0,0
623,3712768554688;	574,5;	0,0;	0,0
623,43896484375;	523,25;	0,0;	0,0
623,506591796875;	508,75;	0,0;	0,0
623,5740966796875;	590,25;	0,0;	0,0
623,6417236328125;	522,25;	0,0;	0,0
623,7092895507812;	551,25;	0,0;	0,0
623,7767944335938;	524,5;	0,0;	0,0
623,8443603515625;	522,75;	0,0;	0,0
623,9119262695312;	547,5;	0,0;	0,0
623,9793701171875;	549,0;	0,0;	0,0
624,046875;	571,0;	0,0;	0,0
624,1143798828125;	554,25;	0,0;	0,0
624,1818237304688;	590,25;	0,0;	0,0
624,249267578125;	499,25;	0,0;	0,0
624,316650390625;	561,5;	0,0;	0,0
624,3840942382812;	530,5;	0,0;	0,0
624,4515380859375;	545,0;	0,0;	0,0
624,518798828125;	588,0;	0,0;	0,0
624,5862426757812;	555,0;	0,0;	0,0
624,6536254882812;	638,25;	0,0;	0,0
624,7208862304688;	652,25;	0,0;	0,0
624,7882690429688;	539,5;	0,0;	0,0
624,8555908203125;	540,5;	0,0;	0,0
624,9228515625;	556,0;	0,0;	0,0
624,9901733398438;	511,5;	0,0;	0,0
625,0574951171875;	558,0;	0,0;	0,0
625,1246948242188;	543,75;	0,0;	0,0
625,1919555664062;	589,25;	0,0;	0,0
625,2592163085938;	647,0;	0,0;	0,0
625,3263549804688;	734,25;	0,0;	0,0
625,3936157226562;	549,0;	0,0;	0,0
625,4608154296875;	556,25;	0,0;	0,0
625,5279541015625;	520,0;	0,0;	0,0
625,5950927734375;	495,0;	0,0;	0,0
625,6622314453125;	542,5;	0,0;	0,0
625,7293701171875;	540,5;	0,0;	0,0
625,7965087890625;	513,0;	0,0;	0,0
625,8635864257812;	538,0;	0,0;	0,0
625,9306640625;	486,5;	0,0;	0,0
625,9977416992188;	483,25;	0,0;	0,0
626,0647583007812;	472,25;	0,0;	0,0
626,1318359375;	508,5;	0,0;	0,0
626,1989135742188;	483,5;	0,0;	0,0
626,265869140625;	530,25;	0,0;	0,0
626,3328857421875;	480,0;	0,0;	0,0
626,39990234375;	483,5;	0,0;	0,0
626,466796875;	474,75;	0,0;	0,0
626,5338134765625;	514,25;	0,0;	0,0
626,6007690429688;	492,0;	0,0;	0,0
626,6676635742188;	471,0;	0,0;	0,0
626,734619140625;	481,75;	0,0;	0,0
626,8014526367188;	487,25;	0,0;	0,0
626,8683471679688;	462,5;	0,0;	0,0
626,9352416992188;	466,5;	0,0;	0,0
627,0020141601562;	481,5;	0,0;	0,0
627,0689086914062;	471,75;	0,0;	0,0
627,1357421875;	472,0;	0,0;	0,0
627,2025756835938;	460,25;	0,0;	0,0
627,2694091796875;	452,75;	0,0;	0,0
627,3361206054688;	447,25;	0,0;	0,0
627,4028930664062;	451,75;	0,0;	0,0
627,4696655273438;	466,5;	0,0;	0,0
627,5364379882812;	442,5;	0,0;	0,0
627,6031494140625;	438,75;	0,0;	0,0
627,6697998046875;	429,0;	0,0;	0,0
627,7365112304688;	471,75;	0,0;	0,0
627,8031616210938;	443,25;	0,0;	0,0
627,869873046875;	426,75;	0,0;	0,0
627,9365234375;	463,25;	0,0;	0,0
628,0031127929688;	442,5;	0,0;	0,0
628,0697631835938;	439,25;	0,0;	0,0
628,1363525390625;	469,0;	0,0;	0,0
628,2030029296875;	450,25;	0,0;	0,0
628,26953125;	432,5;	0,0;	0,0
628,3361206054688;	438,25;	0,0;	0,0
628,4026489257812;	433,5;	0,0;	0,0
628,46923828125;	421,0;	0,0;	0,0
628,5357055664062;	446,5;	0,0;	0,0
628,6022338867188;	437,25;	0,0;	0,0
628,6687622070312;	426,0;	0,0;	0,0
628,7352294921875;	448,75;	0,0;	0,0
628,8016357421875;	421,5;	0,0;	0,0
628,8681640625;	419,25;	0,0;	0,0
628,9345703125;	430,5;	0,0;	0,0
629,0010375976562;	429,0;	0,0;	0,0
629,0673217773438;	450,75;	0,0;	0,0
629,1337890625;	461,25;	0,0;	0,0
629,2001953125;	417,5;	0,0;	0,0
629,2664794921875;	450,25;	0,0;	0,0
629,3328247070312;	408,0;	0,0;	0,0
629,3992309570312;	432,25;	0,0;	0,0
629,4655151367188;	400,0;	0,0;	0,0
629,5317993164062;	395,25;	0,0;	0,0
629,59814453125;	406,5;	0,0;	0,0
629,6643676757812;	423,0;	0,0;	0,0
629,7306518554688;	401,0;	0,0;	0,0
629,7969360351562;	433,5;	0,0;	0,0
629,8631591796875;	414,0;	0,0;	0,0
629,9293212890625;	413,25;	0,0;	0,0
629,9955444335938;	424,0;	0,0;	0,0
630,061767578125;	449,0;	0,0;	0,0
630,1278686523438;	492,75;	0,0;	0,0
630,194091796875;	534,5;	0,0;	0,0
630,26025390625;	530,0;	0,0;	0,0
630,3263549804688;	434,5;	0,0;	0,0
630,3924560546875;	427,5;	0,0;	0,0
630,45849609375;	407,25;	0,0;	0,0
630,524658203125;	397,25;	0,0;	0,0
630,5906982421875;	404,0;	0,0;	0,0
630,65673828125;	376,25;	0,0;	0,0
630,7228393554688;	392,25;	0,0;	0,0
630,7888793945312;	384,5;	0,0;	0,0
630,8548583984375;	390,0;	0,0;	0,0
630,9208984375;	383,5;	0,0;	0,0
630,98681640625;	421,5;	0,0;	0,0
631,0527954101562;	396,0;	0,0;	0,0
631,1187744140625;	391,75;	0,0;	0,0
631,1846923828125;	397,5;	0,0;	0,0
631,2506713867188;	364,75;	0,0;	0,0
631,3165893554688;	387,75;	0,0;	0,0
631,3824462890625;	379,5;	0,0;	0,0
631,4483032226562;	398,25;	0,0;	0,0
631,51416015625;	386,75;	0,0;	0,0
631,5800170898438;	406,25;	0,0;	0,0
631,6459350585938;	423,25;	0,0;	0,0
631,711669921875;	432,75;	0,0;	0,0
631,7775268554688;	424,5;	0,0;	0,0
631,8433227539062;	480,75;	0,0;	0,0
631,9090576171875;	431,5;	0,0;	0,0
631,974853515625;	369,0;	0,0;	0,0
632,0406494140625;	405,25;	0,0;	0,0
632,1063232421875;	384,75;	0,0;	0,0
632,1720581054688;	377,75;	0,0;	0,0
632,23779296875;	396,25;	0,0;	0,0
632,303466796875;	389,5;	0,0;	0,0
632,369140625;	405,0;	0,0;	0,0
632,4348754882812;	380,75;	0,0;	0,0
632,5004272460938;	350,75;	0,0;	0,0
632,5661010742188;	406,5;	0,0;	0,0
632,6317138671875;	397,75;	0,0;	0,0
632,6973266601562;	395,0;	0,0;	0,0
632,762939453125;	378,75;	0,0;	0,0
632,8284912109375;	373,75;	0,0;	0,0
632,89404296875;	360,25;	0,0;	0,0
632,9595947265625;	399,75;	0,0;	0,0
633,025146484375;	377,0;	0,0;	0,0
633,0906372070312;	376,75;	0,0;	0,0
633,1561889648438;	380,75;	0,0;	0,0
633,2216186523438;	380,0;	0,0;	0,0
633,287109375;	362,25;	0,0;	0,0
633,3526000976562;	364,5;	0,0;	0,0
633,4180297851562;	415,25;	0,0;	0,0
633,4835205078125;	394,25;	0,0;	0,0
633,5488891601562;	475,5;	0,0;	0,0
633,6142578125;	468,0;	0,0;	0,0
633,6796875;	451,75;	0,0;	0,0
633,7450561523438;	459,5;	0,0;	0,0
633,8103637695312;	387,0;	0,0;	0,0
633,8757934570312;	366,25;	0,0;	0,0
633,9410400390625;	405,5;	0,0;	0,0
634,00634765625;	366,25;	0,0;	0,0
634,0717163085938;	344,75;	0,0;	0,0
634,136962890625;	344,0;	0,0;	0,0
634,2022094726562;	383,5;	0,0;	0,0
634,2675170898438;	368,75;	0,0;	0,0
634,3327026367188;	348,5;	0,0;	0,0
634,39794921875;	366,75;	0,0;	0,0
634,4631958007812;	407,0;	0,0;	0,0
634,5283813476562;	385,25;	0,0;	0,0
634,5935668945312;	374,75;	0,0;	0,0
634,6587524414062;	354,75;	0,0;	0,0
634,7238159179688;	387,25;	0,0;	0,0
634,7890014648438;	385,5;	0,0;	0,0
634,8541870117188;	338,5;	0,0;	0,0
634,919189453125;	365,75;	0,0;	0,0
634,9843139648438;	393,75;	0,0;	0,0
635,0493774414062;	346,5;	0,0;	0,0
635,114501953125;	358,25;	0,0;	0,0
635,1795654296875;	403,75;	0,0;	0,0
635,2445068359375;	383,75;	0,0;	0,0
635,3095703125;	356,25;	0,0;	0,0
635,3746337890625;	388,75;	0,0;	0,0
635,4395751953125;	388,5;	0,0;	0,0
635,5045776367188;	358,25;	0,0;	0,0
635,5695190429688;	392,25;	0,0;	0,0
635,6344604492188;	385,0;	0,0;	0,0
635,6994018554688;	366,75;	0,0;	0,0
635,7642822265625;	348,25;	0,0;	0,0
635,8292236328125;	383,5;	0,0;	0,0
635,8941040039062;	382,0;	0,0;	0,0
635,9590454101562;	388,0;	0,0;	0,0
636,0238037109375;	375,75;	0,0;	0,0
636,0886840820312;	354,0;	0,0;	0,0
636,1535034179688;	366,75;	0,0;	0,0
636,2183227539062;	362,5;	0,0;	0,0
636,2831420898438;	362,5;	0,0;	0,0
636,3478393554688;	412,25;	0,0;	0,0
636,4126586914062;	367,5;	0,0;	0,0
636,4774169921875;	378,75;	0,0;	0,0
636,5421142578125;	393,25;	0,0;	0,0
636,60693359375;	373,75;	0,0;	0,0
636,6716918945312;	333,5;	0,0;	0,0
636,736328125;	373,75;	0,0;	0,0
636,801025390625;	372,75;	0,0;	0,0
636,86572265625;	358,5;	0,0;	0,0
636,9302978515625;	372,75;	0,0;	0,0
636,9949951171875;	355,25;	0,0;	0,0
637,0596313476562;	363,25;	0,0;	0,0
637,1242065429688;	364,25;	0,0;	0,0
637,1888427734375;	366,75;	0,0;	0,0
637,2533569335938;	359,25;	0,0;	0,0
637,31787109375;	319,0;	0,0;	0,0
637,3824462890625;	384,5;	0,0;	0,0
637,4469604492188;	345,5;	0,0;	0,0
637,5115356445312;	374,75;	0,0;	0,0
637,5760498046875;	341,0;	0,0;	0,0
637,6405029296875;	351,5;	0,0;	0,0
637,7050170898438;	339,25;	0,0;	0,0
637,7694702148438;	372,25;	0,0;	0,0
637,8339233398438;	355,75;	0,0;	0,0
637,8983764648438;	371,5;	0,0;	0,0
637,9627685546875;	372,75;	0,0;	0,0
638,027099609375;	361,5;	0,0;	0,0
638,091552734375;	355,5;	0,0;	0,0
638,1559448242188;	369,25;	0,0;	0,0
638,2202758789062;	348,75;	0,0;	0,0
638,28466796875;	344,75;	0,0;	0,0
638,3489990234375;	346,75;	0,0;	0,0
638,4132690429688;	376,25;	0,0;	0,0
638,4776000976562;	324,0;	0,0;	0,0
638,5418701171875;	335,25;	0,0;	0,0
638,6061401367188;	342,25;	0,0;	0,0
638,6703491210938;	353,75;	0,0;	0,0
638,7345581054688;	348,5;	0,0;	0,0
638,798828125;	348,5;	0,0;	0,0
638,8630981445312;	351,0;	0,0;	0,0
638,9271850585938;	354,0;	0,0;	0,0
638,9913940429688;	334,25;	0,0;	0,0
639,0556030273438;	353,75;	0,0;	0,0
639,1197509765625;	378,25;	0,0;	0,0
639,1838989257812;	356,5;	0,0;	0,0
639,248046875;	398,5;	0,0;	0,0
639,3121337890625;	452,0;	0,0;	0,0
639,376220703125;	558,25;	0,0;	0,0
639,4403076171875;	526,5;	0,0;	0,0
639,5043334960938;	388,75;	0,0;	0,0
639,568359375;	348,25;	0,0;	0,0
639,6324462890625;	375,5;	0,0;	0,0
639,6964721679688;	367,5;	0,0;	0,0
639,7604370117188;	364,25;	0,0;	0,0
639,8244018554688;	398,25;	0,0;	0,0
639,888427734375;	439,0;	0,0;	0,0
639,952392578125;	525,25;	0,0;	0,0
640,0162963867188;	668,75;	0,0;	0,0
640,0802612304688;	649,0;	0,0;	0,0
640,1442260742188;	442,0;	0,0;	0,0
640,2080078125;	367,0;	0,0;	0,0
640,27197265625;	338,0;	0,0;	0,0
640,3358154296875;	346,25;	0,0;	0,0
640,399658203125;	349,0;	0,0;	0,0
640,4635620117188;	343,0;	0,0;	0,0
640,52734375;	349,5;	0,0;	0,0
640,5911865234375;	374,0;	0,0;	0,0
640,6549682617188;	348,5;	0,0;	0,0
640,7188110351562;	368,5;	0,0;	0,0
640,782470703125;	384,0;	0,0;	0,0
640,8462524414062;	408,75;	0,0;	0,0
640,9099731445312;	370,0;	0,0;	0,0
640,9736938476562;	347,75;	0,0;	0,0
641,0374755859375;	376,75;	0,0;	0,0
641,10107421875;	388,5;	0,0;	0,0
641,164794921875;	457,75;	0,0;	0,0
641,2284545898438;	511,0;	0,0;	0,0
641,2920532226562;	418,25;	0,0;	0,0
641,3557739257812;	364,75;	0,0;	0,0
641,4193725585938;	347,25;	0,0;	0,0
641,4829711914062;	352,75;	0,0;	0,0
641,5465698242188;	329,5;	0,0;	0,0
641,610107421875;	355,0;	0,0;	0,0
641,6737060546875;	370,75;	0,0;	0,0
641,7372436523438;	366,5;	0,0;	0,0
641,80078125;	356,75;	0,0;	0,0
641,8642578125;	370,75;	0,0;	0,0
641,9277954101562;	359,0;	0,0;	0,0
641,9912109375;	396,75;	0,0;	0,0
642,0546875;	439,25;	0,0;	0,0
642,1182250976562;	442,75;	0,0;	0,0
642,1815795898438;	463,75;	0,0;	0,0
642,2450561523438;	378,5;	0,0;	0,0
642,3084716796875;	348,25;	0,0;	0,0
642,371826171875;	329,0;	0,0;	0,0
642,4352416992188;	344,75;	0,0;	0,0
642,4985961914062;	350,25;	0,0;	0,0
642,5618896484375;	369,75;	0,0;	0,0
642,625244140625;	364,0;	0,0;	0,0
642,6885986328125;	349,0;	0,0;	0,0
642,7518920898438;	352,75;	0,0;	0,0
642,815185546875;	328,5;	0,0;	0,0
642,8784790039062;	341,25;	0,0;	0,0
642,9417114257812;	361,5;	0,0;	0,0
643,0050048828125;	373,5;	0,0;	0,0
643,0682373046875;	468,75;	0,0;	0,0
643,1314086914062;	496,75;	0,0;	0,0
643,1946411132812;	400,0;	0,0;	0,0
643,2577514648438;	371,75;	0,0;	0,0
643,3209838867188;	354,25;	0,0;	0,0
643,3841552734375;	355,75;	0,0;	0,0
643,447265625;	335,25;	0,0;	0,0
643,5104370117188;	356,0;	0,0;	0,0
643,5735473632812;	336,75;	0,0;	0,0
643,6365966796875;	373,0;	0,0;	0,0
643,69970703125;	368,25;	0,0;	0,0
643,7628173828125;	427,0;	0,0;	0,0
643,8258056640625;	545,5;	0,0;	0,0
643,888916015625;	761,75;	0,0;	0,0
643,9519653320312;	1015,0;	0,0;	0,0
644,0148315429688;	570,0;	0,0;	0,0
644,077880859375;	342,5;	0,0;	0,0
644,140869140625;	339,75;	0,0;	0,0
644,2037963867188;	369,25;	0,0;	0,0
644,2667846679688;	359,5;	0,0;	0,0
644,3297119140625;	371,5;	0,0;	0,0
644,3926391601562;	342,75;	0,0;	0,0
644,45556640625;	364,25;	0,0;	0,0
644,5184326171875;	346,5;	0,0;	0,0
644,5812377929688;	363,25;	0,0;	0,0
644,6441650390625;	356,75;	0,0;	0,0
644,7069702148438;	343,25;	0,0;	0,0
644,7698364257812;	340,0;	0,0;	0,0
644,8327026367188;	359,25;	0,0;	0,0
644,8953857421875;	381,5;	0,0;	0,0
644,9581909179688;	424,75;	0,0;	0,0
645,02099609375;	459,5;	0,0;	0,0
645,083740234375;	365,5;	0,0;	0,0
645,146484375;	373,0;	0,0;	0,0
645,209228515625;	335,25;	0,0;	0,0
645,2719116210938;	351,25;	0,0;	0,0
645,3345947265625;	357,75;	0,0;	0,0
645,3972778320312;	341,25;	0,0;	0,0
645,4599609375;	350,5;	0,0;	0,0
645,5225830078125;	378,0;	0,0;	0,0
645,585205078125;	399,5;	0,0;	0,0
645,6478881835938;	372,75;	0,0;	0,0
645,71044921875;	378,5;	0,0;	0,0
645,7730102539062;	354,25;	0,0;	0,0
645,8356323242188;	339,0;	0,0;	0,0
645,898193359375;	349,75;	0,0;	0,0
645,960693359375;	349,25;	0,0;	0,0
646,0232543945312;	354,25;	0,0;	0,0
646,0858154296875;	363,0;	0,0;	0,0
646,1482543945312;	447,5;	0,0;	0,0
646,2107543945312;	555,25;	0,0;	0,0
646,273193359375;	831,0;	0,0;	0,0
646,335693359375;	699,0;	0,0;	0,0
646,3980712890625;	388,0;	0,0;	0,0
646,4605712890625;	357,75;	0,0;	0,0
646,5228881835938;	362,0;	0,0;	0,0
646,5853881835938;	357,0;	0,0;	0,0
646,647705078125;	361,0;	0,0;	0,0
646,7100830078125;	326,0;	0,0;	0,0
646,7724609375;	349,75;	0,0;	0,0
646,834716796875;	333,0;	0,0;	0,0
646,8970947265625;	334,0;	0,0;	0,0
646,9594116210938;	358,0;	0,0;	0,0
647,0216064453125;	369,5;	0,0;	0,0
647,083984375;	369,25;	0,0;	0,0
647,146240234375;	379,0;	0,0;	0,0
647,2084350585938;	380,0;	0,0;	0,0
647,2706909179688;	359,5;	0,0;	0,0
647,3329467773438;	339,75;	0,0;	0,0
647,3950805664062;	341,5;	0,0;	0,0
647,4573364257812;	342,0;	0,0;	0,0
647,5194702148438;	340,0;	0,0;	0,0
647,5816040039062;	370,75;	0,0;	0,0
647,6437377929688;	354,75;	0,0;	0,0
647,7058715820312;	337,25;	0,0;	0,0
647,7680053710938;	340,5;	0,0;	0,0
647,830078125;	352,0;	0,0;	0,0
647,89208984375;	347,75;	0,0;	0,0
647,9541625976562;	346,75;	0,0;	0,0
648,0162353515625;	350,0;	0,0;	0,0
648,0783081054688;	347,75;	0,0;	0,0
648,1403198242188;	360,0;	0,0;	0,0
648,2023315429688;	360,75;	0,0;	0,0
648,2642822265625;	347,75;	0,0;	0,0
648,3262939453125;	356,0;	0,0;	0,0
648,3882446289062;	347,25;	0,0;	0,0
648,4501342773438;	344,5;	0,0;	0,0
648,5120849609375;	375,75;	0,0;	0,0
648,5740356445312;	357,25;	0,0;	0,0
648,6358642578125;	368,0;	0,0;	0,0
648,6978149414062;	377,0;	0,0;	0,0
648,7596435546875;	388,25;	0,0;	0,0
648,8214721679688;	370,25;	0,0;	0,0
648,8833618164062;	372,0;	0,0;	0,0
648,9451293945312;	375,5;	0,0;	0,0
649,0069580078125;	385,0;	0,0;	0,0
649,0687866210938;	363,5;	0,0;	0,0
649,1305541992188;	361,5;	0,0;	0,0
649,1923217773438;	360,0;	0,0;	0,0
649,2540893554688;	423,25;	0,0;	0,0
649,3157348632812;	442,5;	0,0;	0,0
649,3775024414062;	612,75;	0,0;	0,0
649,439208984375;	696,75;	0,0;	0,0
649,5009155273438;	810,0;	0,0;	0,0
649,5626220703125;	757,0;	0,0;	0,0
649,624267578125;	434,75;	0,0;	0,0
649,6858520507812;	417,75;	0,0;	0,0
649,7474975585938;	432,25;	0,0;	0,0
649,8091430664062;	398,5;	0,0;	0,0
649,8707275390625;	368,0;	0,0;	0,0
649,9322509765625;	413,75;	0,0;	0,0
649,9938354492188;	427,25;	0,0;	0,0
650,055419921875;	377,0;	0,0;	0,0
650,116943359375;	368,75;	0,0;	0,0
650,1784057617188;	344,5;	0,0;	0,0
650,239990234375;	346,75;	0,0;	0,0
650,3014526367188;	334,0;	0,0;	0,0
650,3629150390625;	348,5;	0,0;	0,0
650,4244384765625;	338,25;	0,0;	0,0
650,48583984375;	354,75;	0,0;	0,0
650,5472412109375;	346,75;	0,0;	0,0
650,608642578125;	334,0;	0,0;	0,0
650,6701049804688;	343,75;	0,0;	0,0
650,7314453125;	353,0;	0,0;	0,0
650,7928466796875;	368,25;	0,0;	0,0
650,8541870117188;	356,25;	0,0;	0,0
650,91552734375;	366,0;	0,0;	0,0
650,9768676757812;	313,75;	0,0;	0,0
651,0382080078125;	316,0;	0,0;	0,0
651,0994262695312;	319,5;	0,0;	0,0
651,1607666015625;	326,5;	0,0;	0,0
651,2219848632812;	329,0;	0,0;	0,0
651,2832641601562;	343,25;	0,0;	0,0
651,344482421875;	324,0;	0,0;	0,0
651,4056396484375;	324,75;	0,0;	0,0
651,4669189453125;	325,75;	0,0;	0,0
651,5281372070312;	315,0;	0,0;	0,0
651,5892333984375;	325,0;	0,0;	0,0
651,6504516601562;	334,0;	0,0;	0,0
651,7116088867188;	334,75;	0,0;	0,0
651,7726440429688;	360,25;	0,0;	0,0
651,8338623046875;	360,0;	0,0;	0,0
651,8949584960938;	331,5;	0,0;	0,0
651,9559936523438;	349,5;	0,0;	0,0
652,0170288085938;	337,75;	0,0;	0,0
652,078125;	335,0;	0,0;	0,0
652,13916015625;	329,5;	0,0;	0,0
652,2001953125;	333,25;	0,0;	0,0
652,2611083984375;	318,75;	0,0;	0,0
652,3221435546875;	352,25;	0,0;	0,0
652,3831176757812;	335,5;	0,0;	0,0
652,4440307617188;	349,25;	0,0;	0,0
652,5050048828125;	347,5;	0,0;	0,0
652,5659790039062;	321,75;	0,0;	0,0
652,6268920898438;	345,0;	0,0;	0,0
652,6878051757812;	352,25;	0,0;	0,0
652,7487182617188;	365,0;	0,0;	0,0
652,8095092773438;	354,25;	0,0;	0,0
652,8704223632812;	336,75;	0,0;	0,0
652,9312744140625;	341,0;	0,0;	0,0
652,9920654296875;	323,0;	0,0;	0,0
653,0528564453125;	341,0;	0,0;	0,0
653,1137084960938;	356,5;	0,0;	0,0
653,1744384765625;	355,75;	0,0;	0,0
653,2351684570312;	318,5;	0,0;	0,0
653,2958984375;	331,0;	0,0;	0,0
653,3566284179688;	365,0;	0,0;	0,0
653,4174194335938;	349,25;	0,0;	0,0
653,4780883789062;	353,75;	0,0;	0,0
653,5387573242188;	359,25;	0,0;	0,0
653,5994873046875;	357,0;	0,0;	0,0
653,6600341796875;	322,0;	0,0;	0,0
653,720703125;	344,0;	0,0;	0,0
653,7813720703125;	340,25;	0,0;	0,0
653,8419799804688;	364,0;	0,0;	0,0
653,9025268554688;	358,5;	0,0;	0,0
653,9631958007812;	352,5;	0,0;	0,0
654,0237426757812;	352,0;	0,0;	0,0
654,084228515625;	339,0;	0,0;	0,0
654,1448364257812;	381,5;	0,0;	0,0
654,205322265625;	340,25;	0,0;	0,0
654,2658081054688;	339,75;	0,0;	0,0
654,3262939453125;	373,5;	0,0;	0,0
654,3867797851562;	383,0;	0,0;	0,0
654,447265625;	397,25;	0,0;	0,0
654,5076904296875;	385,0;	0,0;	0,0
654,568115234375;	424,25;	0,0;	0,0
654,6285400390625;	486,25;	0,0;	0,0
654,6889038085938;	466,0;	0,0;	0,0
654,7493286132812;	397,0;	0,0;	0,0
654,8096923828125;	398,0;	0,0;	0,0
654,8699951171875;	417,5;	0,0;	0,0
654,9303588867188;	391,5;	0,0;	0,0
654,99072265625;	400,0;	0,0;	0,0
655,0509643554688;	408,5;	0,0;	0,0
655,111328125;	448,5;	0,0;	0,0
655,1715698242188;	415,75;	0,0;	0,0
655,2317504882812;	424,25;	0,0;	0,0
655,2920532226562;	432,0;	0,0;	0,0
655,3522338867188;	478,75;	0,0;	0,0
655,4124755859375;	492,25;	0,0;	0,0
655,4727172851562;	488,75;	0,0;	0,0
655,5328369140625;	475,5;	0,0;	0,0
655,593017578125;	543,0;	0,0;	0,0
655,6531982421875;	529,75;	0,0;	0,0
655,7133178710938;	535,5;	0,0;	0,0
655,7734375;	578,25;	0,0;	0,0
655,8335571289062;	599,25;	0,0;	0,0
655,8936157226562;	644,5;	0,0;	0,0
655,9537353515625;	646,75;	0,0;	0,0
656,0138549804688;	744,75;	0,0;	0,0
656,0738525390625;	805,5;	0,0;	0,0
656,1339111328125;	827,5;	0,0;	0,0
656,1939086914062;	838,25;	0,0;	0,0
656,2538452148438;	874,25;	0,0;	0,0
656,3139038085938;	903,75;	0,0;	0,0
656,373779296875;	863,75;	0,0;	0,0
656,4337768554688;	874,75;	0,0;	0,0
656,4937133789062;	814,0;	0,0;	0,0
656,5537109375;	749,0;	0,0;	0,0
656,613525390625;	746,25;	0,0;	0,0
656,6734619140625;	710,75;	0,0;	0,0
656,7333374023438;	654,75;	0,0;	0,0
656,793212890625;	654,0;	0,0;	0,0
656,8530883789062;	653,5;	0,0;	0,0
656,9129028320312;	620,5;	0,0;	0,0
656,97265625;	591,75;	0,0;	0,0
657,032470703125;	555,75;	0,0;	0,0
657,0922241210938;	500,5;	0,0;	0,0
657,1520385742188;	487,25;	0,0;	0,0
657,2118530273438;	515,75;	0,0;	0,0
657,2715454101562;	494,25;	0,0;	0,0
657,3312377929688;	481,25;	0,0;	0,0
657,3909912109375;	460,75;	0,0;	0,0
657,45068359375;	422,5;	0,0;	0,0
657,5103149414062;	417,25;	0,0;	0,0
657,5700073242188;	397,0;	0,0;	0,0
657,629638671875;	426,5;	0,0;	0,0
657,6892700195312;	407,25;	0,0;	0,0
657,7488403320312;	377,25;	0,0;	0,0
657,8085327148438;	404,0;	0,0;	0,0
657,8681030273438;	381,0;	0,0;	0,0
657,9276733398438;	398,25;	0,0;	0,0
657,9871826171875;	352,0;	0,0;	0,0
658,0467529296875;	371,0;	0,0;	0,0
658,106201171875;	415,5;	0,0;	0,0
658,165771484375;	389,5;	0,0;	0,0
658,2252807617188;	374,5;	0,0;	0,0
658,2847290039062;	381,0;	0,0;	0,0
658,3441772460938;	350,5;	0,0;	0,0
658,4036865234375;	354,75;	0,0;	0,0
658,4630737304688;	368,25;	0,0;	0,0
658,5225830078125;	345,75;	0,0;	0,0
658,5819702148438;	371,0;	0,0;	0,0
658,6412963867188;	357,75;	0,0;	0,0
658,70068359375;	353,75;	0,0;	0,0
658,760009765625;	387,0;	0,0;	0,0
658,8193359375;	349,75;	0,0;	0,0
658,8787231445312;	334,0;	0,0;	0,0
658,93798828125;	342,75;	0,0;	0,0
658,997314453125;	350,75;	0,0;	0,0
659,0565795898438;	331,5;	0,0;	0,0
659,1157836914062;	353,25;	0,0;	0,0
659,1751098632812;	373,5;	0,0;	0,0
659,234375;	392,75;	0,0;	0,0
659,2935180664062;	535,75;	0,0;	0,0
659,3527221679688;	434,75;	0,0;	0,0
659,4119262695312;	420,0;	0,0;	0,0
659,4710693359375;	363,25;	0,0;	0,0
659,5302124023438;	348,25;	0,0;	0,0
659,5894165039062;	347,25;	0,0;	0,0
659,6484985351562;	349,75;	0,0;	0,0
659,7076416015625;	325,5;	0,0;	0,0
659,7666625976562;	328,5;	0,0;	0,0
659,8257446289062;	339,5;	0,0;	0,0
659,8848266601562;	325,0;	0,0;	0,0
659,94384765625;	323,25;	0,0;	0,0
660,0029296875;	347,75;	0,0;	0,0
660,0619506835938;	322,75;	0,0;	0,0
660,1209106445312;	330,75;	0,0;	0,0
660,179931640625;	349,0;	0,0;	0,0
660,2389526367188;	312,0;	0,0;	0,0
660,2978515625;	325,75;	0,0;	0,0
660,3568115234375;	323,25;	0,0;	0,0
660,415771484375;	327,25;	0,0;	0,0
660,474609375;	359,5;	0,0;	0,0
660,5335693359375;	311,5;	0,0;	0,0
660,5924072265625;	316,25;	0,0;	0,0
660,6512451171875;	359,5;	0,0;	0,0
660,7101440429688;	319,0;	0,0;	0,0
660,7689208984375;	331,25;	0,0;	0,0
660,8277587890625;	335,25;	0,0;	0,0
660,8865966796875;	333,5;	0,0;	0,0
660,9453125;	319,25;	0,0;	0,0
661,004150390625;	323,0;	0,0;	0,0
661,0628662109375;	332,0;	0,0;	0,0
661,12158203125;	327,5;	0,0;	0,0
661,1802978515625;	326,25;	0,0;	0,0
661,2390747070312;	319,0;	0,0;	0,0
661,2976684570312;	330,5;	0,0;	0,0
661,3564453125;	345,0;	0,0;	0,0
661,4151000976562;	325,25;	0,0;	0,0
661,4737548828125;	331,0;	0,0;	0,0
661,5323486328125;	331,0;	0,0;	0,0
661,5909423828125;	320,75;	0,0;	0,0
661,6495361328125;	305,5;	0,0;	0,0
661,7081298828125;	310,5;	0,0;	0,0
661,7667236328125;	304,5;	0,0;	0,0
661,8252563476562;	319,0;	0,0;	0,0
661,8837890625;	324,75;	0,0;	0,0
661,9422607421875;	322,75;	0,0;	0,0
662,0008544921875;	314,25;	0,0;	0,0
662,0593872070312;	332,75;	0,0;	0,0
662,1177978515625;	319,0;	0,0;	0,0
662,17626953125;	336,25;	0,0;	0,0
662,2346801757812;	320,75;	0,0;	0,0
662,2930908203125;	308,5;	0,0;	0,0
662,3515625;	310,25;	0,0;	0,0
662,4099731445312;	339,0;	0,0;	0,0
662,4683227539062;	327,5;	0,0;	0,0
662,5267333984375;	320,75;	0,0;	0,0
662,5850830078125;	334,75;	0,0;	0,0
662,6433715820312;	322,5;	0,0;	0,0
662,7017211914062;	293,5;	0,0;	0,0
662,760009765625;	352,25;	0,0;	0,0
662,8182983398438;	336,75;	0,0;	0,0
662,8765869140625;	341,25;	0,0;	0,0
662,9348754882812;	284,25;	0,0;	0,0
662,9930419921875;	295,25;	0,0;	0,0
663,0513305664062;	294,5;	0,0;	0,0
663,1094970703125;	351,25;	0,0;	0,0
663,167724609375;	343,5;	0,0;	0,0
663,2259521484375;	320,5;	0,0;	0,0
663,2840576171875;	336,5;	0,0;	0,0
663,3421630859375;	342,75;	0,0;	0,0
663,400390625;	374,0;	0,0;	0,0
663,4584350585938;	340,75;	0,0;	0,0
663,5166015625;	363,75;	0,0;	0,0
663,5746459960938;	336,25;	0,0;	0,0
663,6327514648438;	319,75;	0,0;	0,0
663,6907348632812;	330,0;	0,0;	0,0
663,7488403320312;	326,75;	0,0;	0,0
663,806884765625;	306,25;	0,0;	0,0
663,8648681640625;	325,0;	0,0;	0,0
663,9229125976562;	340,75;	0,0;	0,0
663,9808349609375;	321,5;	0,0;	0,0
664,038818359375;	331,25;	0,0;	0,0
664,0966796875;	341,5;	0,0;	0,0
664,1546630859375;	328,0;	0,0;	0,0
664,2125854492188;	322,75;	0,0;	0,0
664,2705078125;	321,25;	0,0;	0,0
664,328369140625;	350,0;	0,0;	0,0
664,38623046875;	356,75;	0,0;	0,0
664,444091796875;	350,0;	0,0;	0,0
664,501953125;	319,75;	0,0;	0,0
664,5597534179688;	329,0;	0,0;	0,0
664,6175537109375;	318,5;	0,0;	0,0
664,6753540039062;	328,25;	0,0;	0,0
664,733154296875;	366,5;	0,0;	0,0
664,7908935546875;	330,75;	0,0;	0,0
664,8486938476562;	341,5;	0,0;	0,0
664,9064331054688;	321,75;	0,0;	0,0
664,964111328125;	323,0;	0,0;	0,0
665,0217895507812;	319,25;	0,0;	0,0
665,0794677734375;	342,25;	0,0;	0,0
665,1371459960938;	359,75;	0,0;	0,0
665,1947631835938;	309,75;	0,0;	0,0
665,2523803710938;	327,0;	0,0;	0,0
665,3099975585938;	335,5;	0,0;	0,0
665,36767578125;	342,5;	0,0;	0,0
665,4252319335938;	355,25;	0,0;	0,0
665,4827880859375;	366,25;	0,0;	0,0
665,5404052734375;	301,0;	0,0;	0,0
665,597900390625;	322,75;	0,0;	0,0
665,6554565429688;	315,75;	0,0;	0,0
665,7130126953125;	356,5;	0,0;	0,0
665,7704467773438;	346,0;	0,0;	0,0
665,8279418945312;	344,0;	0,0;	0,0
665,8854370117188;	334,25;	0,0;	0,0
665,9428100585938;	327,25;	0,0;	0,0
666,0003051757812;	332,25;	0,0;	0,0
666,0576782226562;	306,5;	0,0;	0,0
666,1150512695312;	302,0;	0,0;	0,0
666,1724853515625;	330,5;	0,0;	0,0
666,2298583984375;	326,0;	0,0;	0,0
666,2871704101562;	370,0;	0,0;	0,0
666,3446044921875;	385,25;	0,0;	0,0
666,4019165039062;	353,0;	0,0;	0,0
666,4591674804688;	321,25;	0,0;	0,0
666,5165405273438;	331,5;	0,0;	0,0
666,57373046875;	337,5;	0,0;	0,0
666,6310424804688;	334,5;	0,0;	0,0
666,6882934570312;	340,5;	0,0;	0,0
666,7454833984375;	304,0;	0,0;	0,0
666,802734375;	328,25;	0,0;	0,0
666,8599243164062;	337,25;	0,0;	0,0
666,9171142578125;	363,25;	0,0;	0,0
666,9742431640625;	360,25;	0,0;	0,0
667,0314331054688;	349,0;	0,0;	0,0
667,0885620117188;	330,0;	0,0;	0,0
667,1456909179688;	329,0;	0,0;	0,0
667,2026977539062;	324,5;	0,0;	0,0
667,2598876953125;	345,5;	0,0;	0,0
667,3169555664062;	342,0;	0,0;	0,0
667,3739624023438;	346,5;	0,0;	0,0
667,4310302734375;	342,0;	0,0;	0,0
667,488037109375;	308,25;	0,0;	0,0
667,5451049804688;	325,75;	0,0;	0,0
667,6021118164062;	337,0;	0,0;	0,0
667,6591186523438;	354,75;	0,0;	0,0
667,7160034179688;	414,5;	0,0;	0,0
667,77294921875;	485,0;	0,0;	0,0
667,8299560546875;	564,25;	0,0;	0,0
667,8867797851562;	366,0;	0,0;	0,0
667,9437255859375;	317,75;	0,0;	0,0
668,0006103515625;	315,25;	0,0;	0,0
668,0574951171875;	323,0;	0,0;	0,0
668,1143798828125;	330,0;	0,0;	0,0
668,171142578125;	314,5;	0,0;	0,0
668,2279663085938;	344,75;	0,0;	0,0
668,2847900390625;	333,5;	0,0;	0,0
668,341552734375;	353,5;	0,0;	0,0
668,3983764648438;	348,5;	0,0;	0,0
668,4552001953125;	294,25;	0,0;	0,0
668,5118408203125;	309,25;	0,0;	0,0
668,568603515625;	340,75;	0,0;	0,0
668,6253662109375;	309,75;	0,0;	0,0
668,6819458007812;	338,25;	0,0;	0,0
668,7387084960938;	312,5;	0,0;	0,0
668,79541015625;	319,5;	0,0;	0,0
668,8519897460938;	329,75;	0,0;	0,0
668,90869140625;	307,25;	0,0;	0,0
668,9652709960938;	335,5;	0,0;	0,0
669,0218505859375;	310,75;	0,0;	0,0
669,0784301757812;	354,25;	0,0;	0,0
669,1350708007812;	335,25;	0,0;	0,0
669,1915893554688;	334,0;	0,0;	0,0
669,2481689453125;	333,75;	0,0;	0,0
669,3046264648438;	338,75;	0,0;	0,0
669,3611450195312;	335,0;	0,0;	0,0
669,4176635742188;	331,0;	0,0;	0,0
669,47412109375;	306,0;	0,0;	0,0
669,5305786132812;	322,25;	0,0;	0,0
669,5870971679688;	321,75;	0,0;	0,0
669,6434326171875;	318,5;	0,0;	0,0
669,6998901367188;	310,0;	0,0;	0,0
669,7562866210938;	334,0;	0,0;	0,0
669,8126220703125;	328,5;	0,0;	0,0
669,8690795898438;	341,25;	0,0;	0,0
669,9254150390625;	306,75;	0,0;	0,0
669,981689453125;	326,5;	0,0;	0,0
670,0380249023438;	347,5;	0,0;	0,0
670,0943603515625;	330,25;	0,0;	0,0
670,150634765625;	336,0;	0,0;	0,0
670,2069091796875;	348,75;	0,0;	0,0
670,2631225585938;	335,75;	0,0;	0,0
670,3193969726562;	378,75;	0,0;	0,0
670,3756713867188;	365,0;	0,0;	0,0
670,4318237304688;	428,0;	0,0;	0,0
670,488037109375;	435,25;	0,0;	0,0
670,544189453125;	588,25;	0,0;	0,0
670,600341796875;	858,75;	0,0;	0,0
670,656494140625;	1673,0;	0,0;	0,0
670,7127075195312;	3793,0;	0,0;	0,0
670,768798828125;	8420,5;	0,0;	0,0
670,8248291015625;	6570,0;	0,0;	0,0
670,8809814453125;	1343,25;	0,0;	0,0
670,93701171875;	506,5;	0,0;	0,0
670,9930419921875;	397,0;	0,0;	0,0
671,0491333007812;	391,75;	0,0;	0,0
671,1051025390625;	355,5;	0,0;	0,0
671,1611328125;	362,0;	0,0;	0,0
671,2171020507812;	379,75;	0,0;	0,0
671,2730712890625;	361,0;	0,0;	0,0
671,3291015625;	355,25;	0,0;	0,0
671,3849487304688;	365,25;	0,0;	0,0
671,44091796875;	349,5;	0,0;	0,0
671,496826171875;	337,25;	0,0;	0,0
671,5526733398438;	355,0;	0,0;	0,0
671,6085815429688;	309,0;	0,0;	0,0
671,6644897460938;	352,0;	0,0;	0,0
671,7202758789062;	358,25;	0,0;	0,0
671,7761840820312;	390,5;	0,0;	0,0
671,8319702148438;	346,0;	0,0;	0,0
671,8876953125;	326,5;	0,0;	0,0
671,9435424804688;	321,5;	0,0;	0,0
671,9993286132812;	313,5;	0,0;	0,0
672,0550537109375;	315,75;	0,0;	0,0
672,1107788085938;	338,5;	0,0;	0,0
672,16650390625;	320,75;	0,0;	0,0
672,22216796875;	326,75;	0,0;	0,0
672,2778930664062;	312,25;	0,0;	0,0
672,3335571289062;	322,75;	0,0;	0,0
672,3892211914062;	315,75;	0,0;	0,0
672,4448852539062;	352,75;	0,0;	0,0
672,50048828125;	318,25;	0,0;	0,0
672,5560913085938;	328,5;	0,0;	0,0
672,6116943359375;	347,25;	0,0;	0,0
672,6672973632812;	332,25;	0,0;	0,0
672,7228393554688;	339,75;	0,0;	0,0
672,7783813476562;	304,5;	0,0;	0,0
672,8338623046875;	314,25;	0,0;	0,0
672,889404296875;	329,5;	0,0;	0,0
672,9449462890625;	328,5;	0,0;	0,0
673,0003662109375;	314,25;	0,0;	0,0
673,0558471679688;	294,75;	0,0;	0,0
673,111328125;	329,0;	0,0;	0,0
673,166748046875;	344,75;	0,0;	0,0
673,22216796875;	330,25;	0,0;	0,0
673,277587890625;	345,5;	0,0;	0,0
673,3329467773438;	319,75;	0,0;	0,0
673,3883666992188;	301,5;	0,0;	0,0
673,4436645507812;	340,75;	0,0;	0,0
673,4990234375;	309,0;	0,0;	0,0
673,5543823242188;	300,75;	0,0;	0,0
673,6096801757812;	317,75;	0,0;	0,0
673,6649780273438;	309,25;	0,0;	0,0
673,72021484375;	309,25;	0,0;	0,0
673,7755126953125;	309,5;	0,0;	0,0
673,8307495117188;	318,25;	0,0;	0,0
673,885986328125;	327,75;	0,0;	0,0
673,9412231445312;	326,5;	0,0;	0,0
673,9963989257812;	325,0;	0,0;	0,0
674,051513671875;	324,75;	0,0;	0,0
674,106689453125;	322,5;	0,0;	0,0
674,161865234375;	302,75;	0,0;	0,0
674,2169799804688;	312,75;	0,0;	0,0
674,2721557617188;	318,5;	0,0;	0,0
674,3272705078125;	304,25;	0,0;	0,0
674,38232421875;	319,25;	0,0;	0,0
674,4373779296875;	325,25;	0,0;	0,0
674,4924926757812;	332,25;	0,0;	0,0
674,5474853515625;	335,75;	0,0;	0,0
674,6025390625;	310,0;	0,0;	0,0
674,6575317382812;	307,5;	0,0;	0,0
674,7124633789062;	291,0;	0,0;	0,0
674,7674560546875;	324,5;	0,0;	0,0
674,8224487304688;	345,75;	0,0;	0,0
674,8773803710938;	315,5;	0,0;	0,0
674,9323120117188;	333,25;	0,0;	0,0
674,9871826171875;	338,5;	0,0;	0,0
675,0420532226562;	329,75;	0,0;	0,0
675,0969848632812;	319,25;	0,0;	0,0
675,15185546875;	332,75;	0,0;	0,0
675,2066650390625;	335,5;	0,0;	0,0
675,2615356445312;	306,75;	0,0;	0,0
675,3162841796875;	320,75;	0,0;	0,0
675,3711547851562;	340,0;	0,0;	0,0
675,4259033203125;	318,75;	0,0;	0,0
675,4806518554688;	303,75;	0,0;	0,0
675,535400390625;	323,25;	0,0;	0,0
675,5902099609375;	313,25;	0,0;	0,0
675,6448364257812;	320,0;	0,0;	0,0
675,6996459960938;	315,75;	0,0;	0,0
675,7543334960938;	306,25;	0,0;	0,0
675,8088989257812;	316,5;	0,0;	0,0
675,8636474609375;	319,0;	0,0;	0,0
675,9182739257812;	323,0;	0,0;	0,0
675,9728393554688;	298,25;	0,0;	0,0
676,0274658203125;	316,5;	0,0;	0,0
676,0820922851562;	308,25;	0,0;	0,0
676,1366577148438;	313,0;	0,0;	0,0
676,1912231445312;	303,5;	0,0;	0,0
676,2457275390625;	282,5;	0,0;	0,0
676,30029296875;	324,75;	0,0;	0,0
676,3547973632812;	306,5;	0,0;	0,0
676,4092407226562;	318,5;	0,0;	0,0
676,4637451171875;	302,25;	0,0;	0,0
676,5182495117188;	325,75;	0,0;	0,0
676,5726928710938;	304,25;	0,0;	0,0
676,6271362304688;	299,75;	0,0;	0,0
676,6815795898438;	307,75;	0,0;	0,0
676,7359619140625;	316,5;	0,0;	0,0
676,790283203125;	309,25;	0,0;	0,0
676,8447265625;	282,0;	0,0;	0,0
676,8990478515625;	302,25;	0,0;	0,0
676,9534301757812;	307,75;	0,0;	0,0
677,0076904296875;	308,25;	0,0;	0,0
677,06201171875;	309,0;	0,0;	0,0
677,1163330078125;	284,5;	0,0;	0,0
677,1705322265625;	312,0;	0,0;	0,0
677,2247924804688;	316,25;	0,0;	0,0
677,279052734375;	297,5;	0,0;	0,0
677,333251953125;	302,5;	0,0;	0,0
677,3875122070312;	306,75;	0,0;	0,0
677,4417114257812;	313,0;	0,0;	0,0
677,4957885742188;	301,0;	0,0;	0,0
677,550048828125;	291,75;	0,0;	0,0
677,6041870117188;	299,75;	0,0;	0,0
677,6583251953125;	294,25;	0,0;	0,0
677,71240234375;	300,5;	0,0;	0,0
677,7665405273438;	321,0;	0,0;	0,0
677,8206176757812;	293,25;	0,0;	0,0
677,8746948242188;	275,75;	0,0;	0,0
677,9287109375;	308,0;	0,0;	0,0
677,9827270507812;	287,25;	0,0;	0,0
678,0367431640625;	301,0;	0,0;	0,0
678,0906982421875;	303,0;	0,0;	0,0
678,144775390625;	289,25;	0,0;	0,0
678,19873046875;	300,5;	0,0;	0,0
678,2526245117188;	309,5;	0,0;	0,0
678,3065795898438;	296,5;	0,0;	0,0
678,3605346679688;	308,5;	0,0;	0,0
678,4144287109375;	319,5;	0,0;	0,0
678,4683227539062;	320,75;	0,0;	0,0
678,5221557617188;	330,25;	0,0;	0,0
678,5759887695312;	304,25;	0,0;	0,0
678,6298828125;	310,25;	0,0;	0,0
678,6837158203125;	287,25;	0,0;	0,0
678,7374877929688;	300,75;	0,0;	0,0
678,791259765625;	314,0;	0,0;	0,0
678,8450927734375;	299,5;	0,0;	0,0
678,8988037109375;	301,5;	0,0;	0,0
678,9525756835938;	281,0;	0,0;	0,0
679,0062866210938;	319,75;	0,0;	0,0
679,0599975585938;	323,5;	0,0;	0,0
679,1137084960938;	278,75;	0,0;	0,0
679,1674194335938;	281,75;	0,0;	0,0
679,2210083007812;	303,0;	0,0;	0,0
679,2747192382812;	294,75;	0,0;	0,0
679,3283081054688;	293,75;	0,0;	0,0
679,3819580078125;	324,25;	0,0;	0,0
679,435546875;	310,25;	0,0;	0,0
679,4890747070312;	307,0;	0,0;	0,0
679,542724609375;	285,75;	0,0;	0,0
679,5962524414062;	299,75;	0,0;	0,0
679,6497192382812;	270,5;	0,0;	0,0
679,7032470703125;	310,0;	0,0;	0,0
679,7568359375;	304,0;	0,0;	0,0
679,810302734375;	321,25;	0,0;	0,0
679,86376953125;	308,75;	0,0;	0,0
679,9171752929688;	302,25;	0,0;	0,0
679,9706420898438;	290,5;	0,0;	0,0
680,0240478515625;	299,0;	0,0;	0,0
680,0775146484375;	304,5;	0,0;	0,0
680,130859375;	295,75;	0,0;	0,0
680,1842651367188;	299,5;	0,0;	0,0
680,237548828125;	290,75;	0,0;	0,0
680,2909545898438;	279,0;	0,0;	0,0
680,3442993164062;	314,75;	0,0;	0,0
680,3975830078125;	306,25;	0,0;	0,0
680,4508666992188;	289,75;	0,0;	0,0
680,504150390625;	307,75;	0,0;	0,0
680,557373046875;	299,5;	0,0;	0,0
680,6106567382812;	298,25;	0,0;	0,0
680,6639404296875;	289,0;	0,0;	0,0
680,717041015625;	303,25;	0,0;	0,0
680,7703247070312;	278,25;	0,0;	0,0
680,8234252929688;	319,25;	0,0;	0,0
680,8766479492188;	308,0;	0,0;	0,0
680,9297485351562;	328,0;	0,0;	0,0
680,9829711914062;	297,0;	0,0;	0,0
681,0360107421875;	317,0;	0,0;	0,0
681,0891723632812;	305,5;	0,0;	0,0
681,1421508789062;	294,0;	0,0;	0,0
681,1953125;	297,0;	0,0;	0,0
681,2483520507812;	291,0;	0,0;	0,0
681,3013305664062;	300,5;	0,0;	0,0
681,3544311523438;	297,25;	0,0;	0,0
681,4074096679688;	280,5;	0,0;	0,0
681,4603271484375;	307,0;	0,0;	0,0
681,5133056640625;	277,5;	0,0;	0,0
681,5662841796875;	321,25;	0,0;	0,0
681,6192626953125;	307,0;	0,0;	0,0
681,6721801757812;	289,75;	0,0;	0,0
681,72509765625;	302,0;	0,0;	0,0
681,7779541015625;	309,25;	0,0;	0,0
681,8308715820312;	283,0;	0,0;	0,0
681,8837280273438;	305,0;	0,0;	0,0
681,9365234375;	305,75;	0,0;	0,0
681,9893798828125;	312,5;	0,0;	0,0
682,0421142578125;	285,5;	0,0;	0,0
682,0949096679688;	308,5;	0,0;	0,0
682,1477661132812;	302,5;	0,0;	0,0
682,2005004882812;	309,75;	0,0;	0,0
682,2532958984375;	311,25;	0,0;	0,0
682,3059692382812;	282,75;	0,0;	0,0
682,358642578125;	288,75;	0,0;	0,0
682,411376953125;	273,25;	0,0;	0,0
682,4640502929688;	307,25;	0,0;	0,0
682,5167236328125;	313,5;	0,0;	0,0
682,5693359375;	287,25;	0,0;	0,0
682,6220092773438;	320,25;	0,0;	0,0
682,674560546875;	298,0;	0,0;	0,0
682,7272338867188;	328,0;	0,0;	0,0
682,77978515625;	297,75;	0,0;	0,0
682,8323974609375;	291,5;	0,0;	0,0
682,8849487304688;	336,5;	0,0;	0,0
682,9373779296875;	279,5;	0,0;	0,0
682,989990234375;	294,0;	0,0;	0,0
683,04248046875;	300,75;	0,0;	0,0
683,0949096679688;	286,25;	0,0;	0,0
683,1473999023438;	318,25;	0,0;	0,0
683,1998901367188;	290,25;	0,0;	0,0
683,2523193359375;	296,5;	0,0;	0,0
683,3047485351562;	307,75;	0,0;	0,0
683,357177734375;	283,5;	0,0;	0,0
683,4094848632812;	295,0;	0,0;	0,0
683,4619140625;	281,5;	0,0;	0,0
683,5142822265625;	294,75;	0,0;	0,0
683,5665893554688;	312,75;	0,0;	0,0
683,6189575195312;	321,25;	0,0;	0,0
683,6712646484375;	293,5;	0,0;	0,0
683,7235107421875;	319,75;	0,0;	0,0
683,7757568359375;	279,75;	0,0;	0,0
683,8280029296875;	311,25;	0,0;	0,0
683,8803100585938;	296,5;	0,0;	0,0
683,9325561523438;	289,25;	0,0;	0,0
683,9846801757812;	295,25;	0,0;	0,0
684,0369262695312;	322,25;	0,0;	0,0
684,0891723632812;	329,5;	0,0;	0,0
684,1412353515625;	331,25;	0,0;	0,0
684,1934204101562;	306,5;	0,0;	0,0
684,2455444335938;	313,0;	0,0;	0,0
684,2976684570312;	291,5;	0,0;	0,0
684,3497314453125;	335,25;	0,0;	0,0
684,40185546875;	319,0;	0,0;	0,0
684,453857421875;	318,25;	0,0;	0,0
684,5059204101562;	280,0;	0,0;	0,0
684,5579833984375;	287,25;	0,0;	0,0
684,6099853515625;	285,5;	0,0;	0,0
684,6619873046875;	307,5;	0,0;	0,0
684,7139892578125;	278,0;	0,0;	0,0
684,7659301757812;	298,0;	0,0;	0,0
684,8179321289062;	312,5;	0,0;	0,0
684,869873046875;	305,75;	0,0;	0,0
684,9216918945312;	306,25;	0,0;	0,0
684,9736328125;	318,0;	0,0;	0,0
685,0255126953125;	304,5;	0,0;	0,0
685,077392578125;	278,25;	0,0;	0,0
685,1292724609375;	273,75;	0,0;	0,0
685,1810302734375;	279,0;	0,0;	0,0
685,23291015625;	295,0;	0,0;	0,0
685,2847290039062;	303,75;	0,0;	0,0
685,3364868164062;	320,0;	0,0;	0,0
685,3882446289062;	306,25;	0,0;	0,0
685,4400024414062;	315,0;	0,0;	0,0
685,4917602539062;	311,0;	0,0;	0,0
685,5435180664062;	348,75;	0,0;	0,0
685,5951538085938;	331,0;	0,0;	0,0
685,6468505859375;	317,5;	0,0;	0,0
685,6985473632812;	292,5;	0,0;	0,0
685,750244140625;	317,0;	0,0;	0,0
685,8018798828125;	320,25;	0,0;	0,0
685,8534545898438;	302,5;	0,0;	0,0
685,905029296875;	302,25;	0,0;	0,0
685,9566650390625;	310,75;	0,0;	0,0
686,0082397460938;	304,0;	0,0;	0,0
686,059814453125;	316,5;	0,0;	0,0
686,111328125;	312,25;	0,0;	0,0
686,162841796875;	308,5;	0,0;	0,0
686,21435546875;	316,75;	0,0;	0,0
686,265869140625;	289,0;	0,0;	0,0
686,3173828125;	305,25;	0,0;	0,0
686,3687744140625;	300,5;	0,0;	0,0
686,4202270507812;	320,75;	0,0;	0,0
686,4716186523438;	307,75;	0,0;	0,0
686,5230712890625;	305,5;	0,0;	0,0
686,574462890625;	312,0;	0,0;	0,0
686,6258544921875;	292,75;	0,0;	0,0
686,6771850585938;	295,25;	0,0;	0,0
686,7285766601562;	294,75;	0,0;	0,0
686,7799072265625;	307,25;	0,0;	0,0
686,8312377929688;	299,5;	0,0;	0,0
686,882568359375;	271,75;	0,0;	0,0
686,9337768554688;	316,0;	0,0;	0,0
686,9850463867188;	305,75;	0,0;	0,0
687,0363159179688;	297,5;	0,0;	0,0
687,0875244140625;	308,25;	0,0;	0,0
687,1387329101562;	316,25;	0,0;	0,0
687,1900024414062;	288,0;	0,0;	0,0
687,2410888671875;	301,25;	0,0;	0,0
687,2922973632812;	288,25;	0,0;	0,0
687,3434448242188;	298,5;	0,0;	0,0
687,3945922851562;	298,5;	0,0;	0,0
687,4457397460938;	293,0;	0,0;	0,0
687,4968872070312;	311,5;	0,0;	0,0
687,5479125976562;	277,0;	0,0;	0,0
687,5989379882812;	296,25;	0,0;	0,0
687,6500244140625;	299,75;	0,0;	0,0
687,7010498046875;	278,0;	0,0;	0,0
687,7520751953125;	307,75;	0,0;	0,0
687,8030395507812;	297,0;	0,0;	0,0
687,8540649414062;	310,0;	0,0;	0,0
687,905029296875;	310,25;	0,0;	0,0
687,9559936523438;	284,0;	0,0;	0,0
688,0069580078125;	290,75;	0,0;	0,0
688,0579223632812;	297,5;	0,0;	0,0
688,1087646484375;	274,5;	0,0;	0,0
688,1596069335938;	290,5;	0,0;	0,0
688,2105102539062;	302,5;	0,0;	0,0
688,2613525390625;	292,25;	0,0;	0,0
688,3121948242188;	281,25;	0,0;	0,0
688,3630981445312;	290,75;	0,0;	0,0
688,4138793945312;	281,75;	0,0;	0,0
688,464599609375;	300,25;	0,0;	0,0
688,515380859375;	310,0;	0,0;	0,0
688,566162109375;	319,5;	0,0;	0,0
688,6168823242188;	277,75;	0,0;	0,0
688,6676025390625;	284,25;	0,0;	0,0
688,7183227539062;	286,5;	0,0;	0,0
688,76904296875;	285,5;	0,0;	0,0
688,8196411132812;	271,75;	0,0;	0,0
688,870361328125;	285,25;	0,0;	0,0
688,9210205078125;	294,0;	0,0;	0,0
688,9716186523438;	296,75;	0,0;	0,0
689,0222778320312;	310,25;	0,0;	0,0
689,0728149414062;	302,75;	0,0;	0,0
689,1234130859375;	320,0;	0,0;	0,0
689,1740112304688;	298,0;	0,0;	0,0
689,2245483398438;	273,25;	0,0;	0,0
689,2750244140625;	285,5;	0,0;	0,0
689,3255615234375;	294,75;	0,0;	0,0
689,3759765625;	285,0;	0,0;	0,0
689,426513671875;	283,0;	0,0;	0,0
689,4769897460938;	286,5;	0,0;	0,0
689,5274658203125;	278,25;	0,0;	0,0
689,5778198242188;	288,75;	0,0;	0,0
689,6282958984375;	307,0;	0,0;	0,0
689,6786499023438;	310,5;	0,0;	0,0
689,7290649414062;	296,25;	0,0;	0,0
689,7794799804688;	269,5;	0,0;	0,0
689,8297119140625;	293,75;	0,0;	0,0
689,8800659179688;	277,5;	0,0;	0,0
689,930419921875;	271,25;	0,0;	0,0
689,9806518554688;	318,0;	0,0;	0,0
690,031005859375;	281,25;	0,0;	0,0
690,081298828125;	302,75;	0,0;	0,0
690,1314697265625;	317,75;	0,0;	0,0
690,1817626953125;	289,0;	0,0;	0,0
690,23193359375;	328,0;	0,0;	0,0
690,2821655273438;	294,5;	0,0;	0,0
690,3323364257812;	286,25;	0,0;	0,0
690,3825073242188;	294,25;	0,0;	0,0
690,4326782226562;	299,0;	0,0;	0,0
690,4827880859375;	303,5;	0,0;	0,0
690,5328369140625;	303,25;	0,0;	0,0
690,5829467773438;	290,5;	0,0;	0,0
690,6331176757812;	330,5;	0,0;	0,0
690,6831665039062;	292,0;	0,0;	0,0
690,7332153320312;	278,25;	0,0;	0,0
690,7832641601562;	305,0;	0,0;	0,0
690,833251953125;	302,25;	0,0;	0,0
690,8832397460938;	314,25;	0,0;	0,0
690,9332885742188;	307,5;	0,0;	0,0
690,9832153320312;	319,0;	0,0;	0,0
691,033203125;	370,0;	0,0;	0,0
691,0830078125;	391,0;	0,0;	0,0
691,1329956054688;	377,0;	0,0;	0,0
691,1829223632812;	322,25;	0,0;	0,0
691,2328491210938;	316,0;	0,0;	0,0
691,2826538085938;	295,5;	0,0;	0,0
691,33251953125;	275,0;	0,0;	0,0
691,38232421875;	291,5;	0,0;	0,0
691,43212890625;	284,5;	0,0;	0,0
691,4819946289062;	306,5;	0,0;	0,0
691,53173828125;	295,25;	0,0;	0,0
691,58154296875;	306,0;	0,0;	0,0
691,6312866210938;	291,75;	0,0;	0,0
691,6810302734375;	311,25;	0,0;	0,0
691,730712890625;	313,75;	0,0;	0,0
691,7804565429688;	297,5;	0,0;	0,0
691,8301391601562;	299,0;	0,0;	0,0
691,8798217773438;	290,25;	0,0;	0,0
691,929443359375;	291,5;	0,0;	0,0
691,9790649414062;	292,75;	0,0;	0,0
692,0286865234375;	281,25;	0,0;	0,0
692,0783081054688;	287,5;	0,0;	0,0
692,1278686523438;	285,5;	0,0;	0,0
692,177490234375;	312,25;	0,0;	0,0
692,2269897460938;	280,75;	0,0;	0,0
692,2765502929688;	286,5;	0,0;	0,0
692,3261108398438;	283,75;	0,0;	0,0
692,3755493164062;	284,25;	0,0;	0,0
692,4251098632812;	329,5;	0,0;	0,0
692,474609375;	274,25;	0,0;	0,0
692,5240478515625;	298,75;	0,0;	0,0
692,5734252929688;	328,25;	0,0;	0,0
692,6229248046875;	288,0;	0,0;	0,0
692,6723022460938;	291,25;	0,0;	0,0
692,7216796875;	291,5;	0,0;	0,0
692,7711181640625;	292,75;	0,0;	0,0
692,8203735351562;	279,0;	0,0;	0,0
692,8697509765625;	285,5;	0,0;	0,0
692,9190673828125;	270,5;	0,0;	0,0
692,9683837890625;	288,25;	0,0;	0,0
693,0177001953125;	286,75;	0,0;	0,0
693,06689453125;	296,0;	0,0;	0,0
693,1162109375;	283,75;	0,0;	0,0
693,1654663085938;	305,75;	0,0;	0,0
693,214599609375;	286,5;	0,0;	0,0
693,2638549804688;	288,75;	0,0;	0,0
693,3130493164062;	286,5;	0,0;	0,0
693,3622436523438;	311,75;	0,0;	0,0
693,4114379882812;	291,25;	0,0;	0,0
693,4605712890625;	310,25;	0,0;	0,0
693,5096435546875;	299,75;	0,0;	0,0
693,5587768554688;	280,25;	0,0;	0,0
693,6078491210938;	295,25;	0,0;	0,0
693,6568603515625;	300,0;	0,0;	0,0
693,7059936523438;	340,5;	0,0;	0,0
693,7550659179688;	358,25;	0,0;	0,0
693,8040771484375;	402,0;	0,0;	0,0
693,85302734375;	502,0;	0,0;	0,0
693,9020385742188;	410,5;	0,0;	0,0
693,9510498046875;	318,75;	0,0;	0,0
694,0;	308,5;	0,0;	0,0
694,0488891601562;	289,5;	0,0;	0,0
694,0978393554688;	322,5;	0,0;	0,0
694,1467895507812;	268,25;	0,0;	0,0
694,1956176757812;	311,25;	0,0;	0,0
694,2445068359375;	276,75;	0,0;	0,0
694,2933959960938;	307,25;	0,0;	0,0
694,3421630859375;	281,75;	0,0;	0,0
694,3910522460938;	287,5;	0,0;	0,0
694,4398803710938;	344,5;	0,0;	0,0
694,4886474609375;	317,25;	0,0;	0,0
694,5374145507812;	297,0;	0,0;	0,0
694,5862426757812;	329,75;	0,0;	0,0
694,6349487304688;	298,75;	0,0;	0,0
694,6836547851562;	328,75;	0,0;	0,0
694,7323608398438;	305,0;	0,0;	0,0
694,7810668945312;	278,0;	0,0;	0,0
694,8297729492188;	333,75;	0,0;	0,0
694,8784790039062;	307,75;	0,0;	0,0
694,927001953125;	291,25;	0,0;	0,0
694,9756469726562;	293,0;	0,0;	0,0
695,0242309570312;	303,0;	0,0;	0,0
695,0728759765625;	297,25;	0,0;	0,0
695,1213989257812;	301,75;	0,0;	0,0
695,1699829101562;	292,5;	0,0;	0,0
695,2185668945312;	293,0;	0,0;	0,0
695,26708984375;	275,0;	0,0;	0,0
695,3155517578125;	289,5;	0,0;	0,0
695,3640747070312;	282,75;	0,0;	0,0
695,41259765625;	297,25;	0,0;	0,0
695,4609985351562;	316,5;	0,0;	0,0
695,5094604492188;	282,0;	0,0;	0,0
695,557861328125;	286,25;	0,0;	0,0
695,6062622070312;	302,25;	0,0;	0,0
695,6547241210938;	285,5;	0,0;	0,0
695,7030639648438;	299,25;	0,0;	0,0
695,7514038085938;	311,0;	0,0;	0,0
695,7997436523438;	293,0;	0,0;	0,0
695,8480224609375;	285,0;	0,0;	0,0
695,8963623046875;	309,75;	0,0;	0,0
695,9447021484375;	297,0;	0,0;	0,0
695,992919921875;	307,5;	0,0;	0,0
696,0411987304688;	277,0;	0,0;	0,0
696,0894775390625;	302,0;	0,0;	0,0
696,1376342773438;	296,75;	0,0;	0,0
696,1859130859375;	271,0;	0,0;	0,0
696,234130859375;	307,25;	0,0;	0,0
696,2822265625;	274,5;	0,0;	0,0
696,3304443359375;	273,0;	0,0;	0,0
696,3785400390625;	293,75;	0,0;	0,0
696,4266357421875;	283,0;	0,0;	0,0
696,4747924804688;	286,5;	0,0;	0,0
696,5228881835938;	309,75;	0,0;	0,0
696,5709838867188;	286,0;	0,0;	0,0
696,6190185546875;	275,75;	0,0;	0,0
696,6670532226562;	284,0;	0,0;	0,0
696,715087890625;	273,25;	0,0;	0,0
696,7631225585938;	297,75;	0,0;	0,0
696,8110961914062;	260,5;	0,0;	0,0
696,8590698242188;	282,25;	0,0;	0,0
696,9070434570312;	282,5;	0,0;	0,0
696,9548950195312;	293,0;	0,0;	0,0
697,0029296875;	282,75;	0,0;	0,0
697,0508422851562;	286,25;	0,0;	0,0
697,0986938476562;	283,0;	0,0;	0,0
697,1466064453125;	273,75;	0,0;	0,0
697,1943969726562;	295,5;	0,0;	0,0
697,2422485351562;	277,75;	0,0;	0,0
697,2901000976562;	276,5;	0,0;	0,0
697,337890625;	290,5;	0,0;	0,0
697,3856811523438;	281,75;	0,0;	0,0
697,4334716796875;	289,25;	0,0;	0,0
697,481201171875;	309,25;	0,0;	0,0
697,5289306640625;	281,25;	0,0;	0,0
697,5767211914062;	295,75;	0,0;	0,0
697,6243896484375;	308,75;	0,0;	0,0
697,6720581054688;	295,5;	0,0;	0,0
697,7197875976562;	286,0;	0,0;	0,0
697,7673950195312;	303,5;	0,0;	0,0
697,8150634765625;	296,75;	0,0;	0,0
697,8626708984375;	313,25;	0,0;	0,0
697,9102172851562;	313,75;	0,0;	0,0
697,9578857421875;	308,5;	0,0;	0,0
698,0054931640625;	280,25;	0,0;	0,0
698,052978515625;	279,25;	0,0;	0,0
698,1005249023438;	304,0;	0,0;	0,0
698,1481323242188;	271,75;	0,0;	0,0
698,195556640625;	277,75;	0,0;	0,0
698,2431030273438;	277,0;	0,0;	0,0
698,29052734375;	286,0;	0,0;	0,0
698,3380126953125;	288,5;	0,0;	0,0
698,3854370117188;	257,75;	0,0;	0,0
698,432861328125;	300,75;	0,0;	0,0
698,480224609375;	279,0;	0,0;	0,0
698,5276489257812;	306,0;	0,0;	0,0
698,5750122070312;	285,25;	0,0;	0,0
698,6223754882812;	292,25;	0,0;	0,0
698,669677734375;	267,25;	0,0;	0,0
698,7169799804688;	281,0;	0,0;	0,0
698,7643432617188;	287,0;	0,0;	0,0
698,8116455078125;	277,5;	0,0;	0,0
698,85888671875;	294,5;	0,0;	0,0
698,9061279296875;	263,5;	0,0;	0,0
698,9534301757812;	267,5;	0,0;	0,0
699,0006103515625;	276,5;	0,0;	0,0
699,0477905273438;	294,75;	0,0;	0,0
699,094970703125;	277,25;	0,0;	0,0
699,1421508789062;	302,25;	0,0;	0,0
699,1893310546875;	265,25;	0,0;	0,0
699,2363891601562;	270,25;	0,0;	0,0
699,2835693359375;	270,75;	0,0;	0,0
699,3306884765625;	300,0;	0,0;	0,0
699,3777465820312;	277,5;	0,0;	0,0
699,4248657226562;	285,0;	0,0;	0,0
699,471923828125;	283,0;	0,0;	0,0
699,5189208984375;	239,25;	0,0;	0,0
699,5659790039062;	307,0;	0,0;	0,0
699,6129150390625;	257,25;	0,0;	0,0
699,659912109375;	269,5;	0,0;	0,0
699,7069091796875;	269,5;	0,0;	0,0
699,75390625;	282,5;	0,0;	0,0
699,80078125;	274,5;	0,0;	0,0
699,8477172851562;	299,0;	0,0;	0,0
699,8945922851562;	284,25;	0,0;	0,0
699,9414672851562;	304,25;	0,0;	0,0
699,9884033203125;	293,75;	0,0;	0,0
700,0352172851562;	287,75;	0,0;	0,0
700,0820922851562;	293,5;	0,0;	0,0
700,12890625;	275,0;	0,0;	0,0
700,1755981445312;	289,0;	0,0;	0,0
700,2224731445312;	278,25;	0,0;	0,0
700,2692260742188;	279,75;	0,0;	0,0
700,31591796875;	265,25;	0,0;	0,0
700,3626708984375;	281,5;	0,0;	0,0
700,409423828125;	292,0;	0,0;	0,0
700,4560546875;	311,0;	0,0;	0,0
700,5027465820312;	276,75;	0,0;	0,0
700,5494384765625;	301,0;	0,0;	0,0
700,5960693359375;	272,75;	0,0;	0,0
700,6427001953125;	267,5;	0,0;	0,0
700,6893310546875;	262,0;	0,0;	0,0
700,7359619140625;	293,25;	0,0;	0,0
700,7825317382812;	282,0;	0,0;	0,0
700,8291015625;	288,75;	0,0;	0,0
700,8756103515625;	280,25;	0,0;	0,0
700,9221801757812;	273,0;	0,0;	0,0
700,9686279296875;	280,0;	0,0;	0,0
701,0151977539062;	282,0;	0,0;	0,0
701,0617065429688;	285,25;	0,0;	0,0
701,1080932617188;	295,0;	0,0;	0,0
701,154541015625;	278,0;	0,0;	0,0
701,2010498046875;	285,0;	0,0;	0,0
701,2473754882812;	281,0;	0,0;	0,0
701,2937622070312;	295,0;	0,0;	0,0
701,3402099609375;	299,5;	0,0;	0,0
701,3865356445312;	252,0;	0,0;	0,0
701,432861328125;	271,0;	0,0;	0,0
701,4791870117188;	283,5;	0,0;	0,0
701,5255126953125;	305,5;	0,0;	0,0
701,5718383789062;	311,75;	0,0;	0,0
701,6181030273438;	314,0;	0,0;	0,0
701,664306640625;	292,5;	0,0;	0,0
701,7106323242188;	295,75;	0,0;	0,0
701,7567749023438;	273,25;	0,0;	0,0
701,8030395507812;	286,25;	0,0;	0,0
701,8492431640625;	278,0;	0,0;	0,0
701,8953857421875;	284,75;	0,0;	0,0
701,9415283203125;	287,75;	0,0;	0,0
701,9877319335938;	266,0;	0,0;	0,0
702,0338134765625;	269,5;	0,0;	0,0
702,0799560546875;	288,5;	0,0;	0,0
702,1260375976562;	263,75;	0,0;	0,0
702,172119140625;	306,75;	0,0;	0,0
702,2181396484375;	295,5;	0,0;	0,0
702,2642211914062;	280,75;	0,0;	0,0
702,3101806640625;	283,75;	0,0;	0,0
702,356201171875;	340,25;	0,0;	0,0
702,4022216796875;	278,75;	0,0;	0,0
702,4481811523438;	295,75;	0,0;	0,0
702,494140625;	273,75;	0,0;	0,0
702,5400390625;	272,25;	0,0;	0,0
702,5859985351562;	275,0;	0,0;	0,0
702,6318969726562;	290,25;	0,0;	0,0
702,6777954101562;	282,75;	0,0;	0,0
702,7236938476562;	292,75;	0,0;	0,0
702,76953125;	274,5;	0,0;	0,0
702,8153686523438;	297,0;	0,0;	0,0
702,8611450195312;	282,0;	0,0;	0,0
702,906982421875;	278,25;	0,0;	0,0
702,9527587890625;	276,25;	0,0;	0,0
702,99853515625;	284,75;	0,0;	0,0
703,0443115234375;	264,5;	0,0;	0,0
703,0900268554688;	293,5;	0,0;	0,0
703,1357421875;	285,0;	0,0;	0,0
703,1814575195312;	273,5;	0,0;	0,0
703,2271118164062;	280,75;	0,0;	0,0
703,2728271484375;	275,75;	0,0;	0,0
703,3184204101562;	277,75;	0,0;	0,0
703,364013671875;	270,0;	0,0;	0,0
703,4097290039062;	287,75;	0,0;	0,0
703,4552612304688;	271,75;	0,0;	0,0
703,5008544921875;	278,25;	0,0;	0,0
703,5464477539062;	282,25;	0,0;	0,0
703,5919189453125;	285,0;	0,0;	0,0
703,6375122070312;	286,25;	0,0;	0,0
703,6830444335938;	286,25;	0,0;	0,0
703,728515625;	314,0;	0,0;	0,0
703,7739868164062;	310,0;	0,0;	0,0
703,8195190429688;	292,0;	0,0;	0,0
703,8649291992188;	289,0;	0,0;	0,0
703,910400390625;	281,0;	0,0;	0,0
703,9557495117188;	281,5;	0,0;	0,0
704,0011596679688;	260,0;	0,0;	0,0
704,0465698242188;	282,0;	0,0;	0,0
704,0918579101562;	272,0;	0,0;	0,0
704,1372680664062;	258,0;	0,0;	0,0
704,1825561523438;	302,75;	0,0;	0,0
704,2278442382812;	271,5;	0,0;	0,0
704,2731323242188;	276,0;	0,0;	0,0
704,3184204101562;	281,5;	0,0;	0,0
704,3637084960938;	279,0;	0,0;	0,0
704,408935546875;	297,75;	0,0;	0,0
704,4541625976562;	279,75;	0,0;	0,0
704,4993286132812;	296,5;	0,0;	0,0
704,5445556640625;	262,25;	0,0;	0,0
704,5897827148438;	287,0;	0,0;	0,0
704,6348876953125;	275,75;	0,0;	0,0
704,6800537109375;	293,75;	0,0;	0,0
704,7252197265625;	277,75;	0,0;	0,0
704,7702026367188;	271,5;	0,0;	0,0
704,8153076171875;	253,5;	0,0;	0,0
704,8603515625;	284,75;	0,0;	0,0
704,9054565429688;	283,75;	0,0;	0,0
704,9505615234375;	282,25;	0,0;	0,0
704,9955444335938;	261,75;	0,0;	0,0
705,04052734375;	269,75;	0,0;	0,0
705,0855102539062;	285,25;	0,0;	0,0
705,1304931640625;	266,75;	0,0;	0,0
705,1754150390625;	277,0;	0,0;	0,0
705,2203979492188;	278,25;	0,0;	0,0
705,2652587890625;	285,75;	0,0;	0,0
705,3102416992188;	255,5;	0,0;	0,0
705,3551025390625;	260,25;	0,0;	0,0
705,39990234375;	280,0;	0,0;	0,0
705,4447631835938;	258,5;	0,0;	0,0
705,4896850585938;	263,25;	0,0;	0,0
705,534423828125;	267,25;	0,0;	0,0
705,5792846679688;	283,0;	0,0;	0,0
705,6240234375;	283,5;	0,0;	0,0
705,6688232421875;	277,25;	0,0;	0,0
705,7135620117188;	284,0;	0,0;	0,0
705,75830078125;	272,5;	0,0;	0,0
705,8029174804688;	278,5;	0,0;	0,0
705,84765625;	273,75;	0,0;	0,0
705,892333984375;	276,5;	0,0;	0,0
705,93701171875;	285,0;	0,0;	0,0
705,981689453125;	280,75;	0,0;	0,0
706,0262451171875;	256,75;	0,0;	0,0
706,0708618164062;	284,75;	0,0;	0,0
706,1155395507812;	277,75;	0,0;	0,0
706,1600341796875;	261,0;	0,0;	0,0
706,2046508789062;	258,75;	0,0;	0,0
706,2492065429688;	270,75;	0,0;	0,0
706,2936401367188;	266,25;	0,0;	0,0
706,3381958007812;	287,75;	0,0;	0,0
706,3826293945312;	275,0;	0,0;	0,0
706,4271240234375;	272,75;	0,0;	0,0
706,4716186523438;	253,75;	0,0;	0,0
706,5160522460938;	271,5;	0,0;	0,0
706,5604248046875;	297,25;	0,0;	0,0
706,6048583984375;	276,0;	0,0;	0,0
706,6492309570312;	280,75;	0,0;	0,0
706,693603515625;	294,75;	0,0;	0,0
706,738037109375;	261,75;	0,0;	0,0
706,7823486328125;	297,0;	0,0;	0,0
706,82666015625;	269,0;	0,0;	0,0
706,8709716796875;	269,75;	0,0;	0,0
706,9152221679688;	282,25;	0,0;	0,0
706,9595336914062;	267,75;	0,0;	0,0
707,0037841796875;	268,5;	0,0;	0,0
707,0479736328125;	274,0;	0,0;	0,0
707,0922241210938;	290,75;	0,0;	0,0
707,136474609375;	273,0;	0,0;	0,0
707,1806030273438;	268,75;	0,0;	0,0
707,2247314453125;	280,75;	0,0;	0,0
707,2689819335938;	264,5;	0,0;	0,0
707,3130493164062;	270,75;	0,0;	0,0
707,357177734375;	271,0;	0,0;	0,0
707,4012451171875;	260,25;	0,0;	0,0
707,4453125;	285,75;	0,0;	0,0
707,4893798828125;	263,25;	0,0;	0,0
707,5333862304688;	282,25;	0,0;	0,0
707,5774536132812;	276,0;	0,0;	0,0
707,6215209960938;	263,5;	0,0;	0,0
707,6654663085938;	257,25;	0,0;	0,0
707,70947265625;	276,0;	0,0;	0,0
707,75341796875;	259,0;	0,0;	0,0
707,7973022460938;	255,0;	0,0;	0,0
707,84130859375;	256,75;	0,0;	0,0
707,8851928710938;	271,5;	0,0;	0,0
707,9290771484375;	257,0;	0,0;	0,0
707,9729614257812;	291,5;	0,0;	0,0
708,016845703125;	289,5;	0,0;	0,0
708,0606079101562;	274,75;	0,0;	0,0
708,1044921875;	265,25;	0,0;	0,0
708,1482543945312;	266,0;	0,0;	0,0
708,1920166015625;	269,75;	0,0;	0,0
708,2359008789062;	290,25;	0,0;	0,0
708,2796020507812;	259,75;	0,0;	0,0
708,3233032226562;	277,0;	0,0;	0,0
708,3670654296875;	261,0;	0,0;	0,0
708,4107055664062;	263,75;	0,0;	0,0
708,4544067382812;	266,5;	0,0;	0,0
708,4981079101562;	269,75;	0,0;	0,0
708,541748046875;	273,0;	0,0;	0,0
708,5853881835938;	275,0;	0,0;	0,0
708,6289672851562;	285,75;	0,0;	0,0
708,6725463867188;	262,75;	0,0;	0,0
708,7161865234375;	276,25;	0,0;	0,0
708,7598266601562;	253,5;	0,0;	0,0
708,8032836914062;	287,0;	0,0;	0,0
708,8468627929688;	281,25;	0,0;	0,0
708,8903198242188;	284,75;	0,0;	0,0
708,933837890625;	270,5;	0,0;	0,0
708,977294921875;	282,75;	0,0;	0,0
709,020751953125;	305,0;	0,0;	0,0
709,064208984375;	288,0;	0,0;	0,0
709,107666015625;	276,25;	0,0;	0,0
709,1510009765625;	265,75;	0,0;	0,0
709,1943969726562;	264,75;	0,0;	0,0
709,23779296875;	270,0;	0,0;	0,0
709,2811279296875;	282,0;	0,0;	0,0
709,324462890625;	258,5;	0,0;	0,0
709,3678588867188;	268,75;	0,0;	0,0
709,4111328125;	270,25;	0,0;	0,0
709,4544067382812;	276,0;	0,0;	0,0
709,4977416992188;	283,0;	0,0;	0,0
709,5409545898438;	270,25;	0,0;	0,0
709,5841674804688;	264,75;	0,0;	0,0
709,6273803710938;	279,0;	0,0;	0,0
709,6705932617188;	279,5;	0,0;	0,0
709,7138061523438;	282,5;	0,0;	0,0
709,7570190429688;	257,0;	0,0;	0,0
709,8001098632812;	278,75;	0,0;	0,0
709,84326171875;	280,5;	0,0;	0,0
709,8863525390625;	246,25;	0,0;	0,0
709,929443359375;	277,25;	0,0;	0,0
709,9725952148438;	270,0;	0,0;	0,0
710,015625;	255,25;	0,0;	0,0
710,0586547851562;	271,25;	0,0;	0,0
710,1016845703125;	262,0;	0,0;	0,0
710,1446533203125;	259,0;	0,0;	0,0
710,1876831054688;	257,5;	0,0;	0,0
710,230712890625;	249,0;	0,0;	0,0
710,2736206054688;	263,5;	0,0;	0,0
710,3165893554688;	274,0;	0,0;	0,0
710,3594970703125;	276,5;	0,0;	0,0
710,4024047851562;	287,25;	0,0;	0,0
710,4453125;	251,0;	0,0;	0,0
710,4882202148438;	267,75;	0,0;	0,0
710,5310668945312;	264,0;	0,0;	0,0
710,5738525390625;	255,75;	0,0;	0,0
710,61669921875;	260,0;	0,0;	0,0
710,6594848632812;	263,5;	0,0;	0,0
710,7023315429688;	263,75;	0,0;	0,0
710,7450561523438;	249,5;	0,0;	0,0
710,7877807617188;	263,75;	0,0;	0,0
710,83056640625;	272,5;	0,0;	0,0
710,873291015625;	271,25;	0,0;	0,0
710,9159545898438;	288,25;	0,0;	0,0
710,9586791992188;	275,75;	0,0;	0,0
711,0012817382812;	256,75;	0,0;	0,0
711,0439453125;	266,75;	0,0;	0,0
711,0865478515625;	284,5;	0,0;	0,0
711,1292114257812;	264,0;	0,0;	0,0
711,1718139648438;	253,75;	0,0;	0,0
711,2144165039062;	264,25;	0,0;	0,0
711,2568969726562;	262,25;	0,0;	0,0
711,2994995117188;	281,25;	0,0;	0,0
711,342041015625;	249,0;	0,0;	0,0
711,384521484375;	269,75;	0,0;	0,0
711,4270629882812;	257,5;	0,0;	0,0
711,469482421875;	276,5;	0,0;	0,0
711,511962890625;	255,0;	0,0;	0,0
711,5543823242188;	269,0;	0,0;	0,0
711,5968017578125;	251,25;	0,0;	0,0
711,6392211914062;	277,75;	0,0;	0,0
711,681640625;	277,25;	0,0;	0,0
711,7239990234375;	274,5;	0,0;	0,0
711,766357421875;	280,5;	0,0;	0,0
711,8087158203125;	282,0;	0,0;	0,0
711,8510131835938;	288,25;	0,0;	0,0
711,893310546875;	259,5;	0,0;	0,0
711,9356689453125;	281,25;	0,0;	0,0
711,9779052734375;	275,25;	0,0;	0,0
712,0201416015625;	261,5;	0,0;	0,0
712,0623168945312;	254,0;	0,0;	0,0
712,1045532226562;	261,75;	0,0;	0,0
712,1467895507812;	245,0;	0,0;	0,0
712,1889038085938;	267,5;	0,0;	0,0
712,2311401367188;	250,25;	0,0;	0,0
712,2733154296875;	241,5;	0,0;	0,0
712,3153686523438;	256,25;	0,0;	0,0
712,3575439453125;	269,0;	0,0;	0,0
712,3995971679688;	250,25;	0,0;	0,0
712,441650390625;	266,0;	0,0;	0,0
712,4837646484375;	270,25;	0,0;	0,0
712,5258178710938;	298,0;	0,0;	0,0
712,5678100585938;	262,0;	0,0;	0,0
712,6098022460938;	256,5;	0,0;	0,0
712,6517944335938;	265,0;	0,0;	0,0
712,6937255859375;	285,5;	0,0;	0,0
712,7357177734375;	268,5;	0,0;	0,0
712,7776489257812;	277,0;	0,0;	0,0
712,819580078125;	261,75;	0,0;	0,0
712,8615112304688;	263,5;	0,0;	0,0
712,9033813476562;	259,75;	0,0;	0,0
712,9452514648438;	284,75;	0,0;	0,0
712,9871215820312;	283,5;	0,0;	0,0
713,0289306640625;	309,25;	0,0;	0,0
713,0707397460938;	298,25;	0,0;	0,0
713,1126098632812;	255,25;	0,0;	0,0
713,154296875;	266,25;	0,0;	0,0
713,1961059570312;	264,25;	0,0;	0,0
713,2378540039062;	261,0;	0,0;	0,0
713,279541015625;	260,5;	0,0;	0,0
713,3212890625;	276,0;	0,0;	0,0
713,363037109375;	248,5;	0,0;	0,0
713,4046630859375;	262,5;	0,0;	0,0
713,4463500976562;	274,5;	0,0;	0,0
713,4879150390625;	260,75;	0,0;	0,0
713,5296020507812;	280,0;	0,0;	0,0
713,5712280273438;	262,75;	0,0;	0,0
713,6128540039062;	268,25;	0,0;	0,0
713,6543579101562;	265,75;	0,0;	0,0
713,6959228515625;	268,75;	0,0;	0,0
713,7374267578125;	265,5;	0,0;	0,0
713,7789916992188;	257,75;	0,0;	0,0
713,8204345703125;	267,0;	0,0;	0,0
713,8619384765625;	238,75;	0,0;	0,0
713,9034423828125;	243,75;	0,0;	0,0
713,9448852539062;	272,25;	0,0;	0,0
713,9862670898438;	262,25;	0,0;	0,0
714,0277099609375;	267,0;	0,0;	0,0
714,0691528320312;	250,75;	0,0;	0,0
714,1104736328125;	254,75;	0,0;	0,0
714,1519165039062;	257,5;	0,0;	0,0
714,1931762695312;	261,0;	0,0;	0,0
714,2345581054688;	246,5;	0,0;	0,0
714,27587890625;	269,25;	0,0;	0,0
714,3171997070312;	269,75;	0,0;	0,0
714,3583984375;	244,25;	0,0;	0,0
714,3997192382812;	271,5;	0,0;	0,0
714,44091796875;	278,25;	0,0;	0,0
714,4821166992188;	255,5;	0,0;	0,0
714,5233764648438;	287,25;	0,0;	0,0
714,5645141601562;	286,0;	0,0;	0,0
714,6056518554688;	292,75;	0,0;	0,0
714,6469116210938;	325,0;	0,0;	0,0
714,68798828125;	321,75;	0,0;	0,0
714,7291259765625;	399,0;	0,0;	0,0
714,7702026367188;	477,5;	0,0;	0,0
714,811279296875;	370,75;	0,0;	0,0
714,8523559570312;	272,5;	0,0;	0,0
714,8933715820312;	271,25;	0,0;	0,0
714,9344482421875;	248,0;	0,0;	0,0
714,9754638671875;	264,25;	0,0;	0,0
715,0164794921875;	263,25;	0,0;	0,0
715,0574340820312;	264,25;	0,0;	0,0
715,0984497070312;	264,0;	0,0;	0,0
715,1393432617188;	272,5;	0,0;	0,0
715,1802978515625;	272,0;	0,0;	0,0
715,22119140625;	270,0;	0,0;	0,0
715,2620239257812;	273,0;	0,0;	0,0
715,3029174804688;	266,0;	0,0;	0,0
715,3438110351562;	279,25;	0,0;	0,0
715,3845825195312;	267,0;	0,0;	0,0
715,4254760742188;	258,0;	0,0;	0,0
715,4662475585938;	258,5;	0,0;	0,0
715,5070190429688;	280,5;	0,0;	0,0
715,5477905273438;	298,5;	0,0;	0,0
715,5885620117188;	303,0;	0,0;	0,0
715,6293334960938;	305,0;	0,0;	0,0
715,6700439453125;	325,25;	0,0;	0,0
715,7107543945312;	298,75;	0,0;	0,0
715,7513427734375;	302,25;	0,0;	0,0
715,7920532226562;	287,0;	0,0;	0,0
715,8327026367188;	267,0;	0,0;	0,0
715,873291015625;	274,0;	0,0;	0,0
715,9139404296875;	268,75;	0,0;	0,0
715,9545288085938;	257,5;	0,0;	0,0
715,9951171875;	260,5;	0,0;	0,0
716,0357055664062;	286,0;	0,0;	0,0
716,0762329101562;	241,5;	0,0;	0,0
716,1167602539062;	265,75;	0,0;	0,0
716,1572875976562;	264,25;	0,0;	0,0
716,1976928710938;	263,75;	0,0;	0,0
716,2382202148438;	267,5;	0,0;	0,0
716,2786865234375;	264,75;	0,0;	0,0
716,319091796875;	282,75;	0,0;	0,0
716,3595581054688;	306,0;	0,0;	0,0
716,3999633789062;	289,25;	0,0;	0,0
716,4402465820312;	278,25;	0,0;	0,0
716,480712890625;	272,25;	0,0;	0,0
716,52099609375;	265,25;	0,0;	0,0
716,5613403320312;	268,0;	0,0;	0,0
716,6016845703125;	262,0;	0,0;	0,0
716,6419677734375;	257,5;	0,0;	0,0
716,6822509765625;	262,5;	0,0;	0,0
716,7224731445312;	251,0;	0,0;	0,0
716,7626953125;	271,5;	0,0;	0,0
716,802978515625;	244,0;	0,0;	0,0
716,8432006835938;	258,25;	0,0;	0,0
716,88330078125;	256,25;	0,0;	0,0
716,9235229492188;	267,0;	0,0;	0,0
716,9636840820312;	255,75;	0,0;	0,0
717,0038452148438;	257,5;	0,0;	0,0
717,0439453125;	259,5;	0,0;	0,0
717,0840454101562;	236,5;	0,0;	0,0
717,1241455078125;	240,5;	0,0;	0,0
717,1641845703125;	242,25;	0,0;	0,0
717,2042236328125;	237,75;	0,0;	0,0
717,2442626953125;	250,25;	0,0;	0,0
717,2843017578125;	254,25;	0,0;	0,0
717,32421875;	227,25;	0,0;	0,0
717,3642578125;	252,5;	0,0;	0,0
717,4042358398438;	251,75;	0,0;	0,0
717,4441528320312;	256,5;	0,0;	0,0
717,484130859375;	260,5;	0,0;	0,0
717,5240478515625;	276,0;	0,0;	0,0
717,5638427734375;	254,25;	0,0;	0,0
717,603759765625;	247,75;	0,0;	0,0
717,6436157226562;	246,75;	0,0;	0,0
717,6834716796875;	272,25;	0,0;	0,0
717,7232666015625;	254,5;	0,0;	0,0
717,7631225585938;	257,0;	0,0;	0,0
717,8028564453125;	264,75;	0,0;	0,0
717,8426513671875;	255,25;	0,0;	0,0
717,8823852539062;	266,0;	0,0;	0,0
717,922119140625;	252,25;	0,0;	0,0
717,9618530273438;	252,5;	0,0;	0,0
718,0015869140625;	258,75;	0,0;	0,0
718,0411987304688;	269,0;	0,0;	0,0
718,0808715820312;	246,5;	0,0;	0,0
718,1204833984375;	269,0;	0,0;	0,0
718,16015625;	257,75;	0,0;	0,0
718,1998291015625;	264,25;	0,0;	0,0
718,2393188476562;	272,0;	0,0;	0,0
718,2789306640625;	250,25;	0,0;	0,0
718,3185424804688;	266,0;	0,0;	0,0
718,3579711914062;	267,75;	0,0;	0,0
718,3975830078125;	270,0;	0,0;	0,0
718,4370727539062;	260,0;	0,0;	0,0
718,4765625;	269,5;	0,0;	0,0
718,5159912109375;	285,0;	0,0;	0,0
718,555419921875;	298,75;	0,0;	0,0
718,5948486328125;	309,5;	0,0;	0,0
718,6343383789062;	318,0;	0,0;	0,0
718,6737060546875;	396,25;	0,0;	0,0
718,7130737304688;	396,0;	0,0;	0,0
718,75244140625;	307,75;	0,0;	0,0
718,791748046875;	267,25;	0,0;	0,0
718,8311157226562;	291,0;	0,0;	0,0
718,8704223632812;	246,0;	0,0;	0,0
718,90966796875;	251,5;	0,0;	0,0
718,948974609375;	243,75;	0,0;	0,0
718,98828125;	244,0;	0,0;	0,0
719,0274047851562;	248,0;	0,0;	0,0
719,0667114257812;	238,0;	0,0;	0,0
719,1058959960938;	238,75;	0,0;	0,0
719,1450805664062;	253,25;	0,0;	0,0
719,1842651367188;	252,5;	0,0;	0,0
719,223388671875;	258,0;	0,0;	0,0
719,2625122070312;	270,5;	0,0;	0,0
719,3016357421875;	257,75;	0,0;	0,0
719,3407592773438;	251,5;	0,0;	0,0
719,3797607421875;	256,75;	0,0;	0,0
719,4188842773438;	239,0;	0,0;	0,0
719,4578857421875;	236,75;	0,0;	0,0
719,4969482421875;	248,75;	0,0;	0,0
719,5359497070312;	251,25;	0,0;	0,0
719,5748901367188;	233,25;	0,0;	0,0
719,6139526367188;	249,0;	0,0;	0,0
719,65283203125;	249,75;	0,0;	0,0
719,6917724609375;	257,75;	0,0;	0,0
719,7307739257812;	254,0;	0,0;	0,0
719,7696533203125;	242,0;	0,0;	0,0
719,8085327148438;	262,0;	0,0;	0,0
719,8473510742188;	245,75;	0,0;	0,0
719,8862915039062;	237,25;	0,0;	0,0
719,925048828125;	238,0;	0,0;	0,0
719,9638671875;	257,0;	0,0;	0,0
720,002685546875;	263,5;	0,0;	0,0
720,0413818359375;	270,25;	0,0;	0,0
720,0802001953125;	247,0;	0,0;	0,0
720,1189575195312;	284,0;	0,0;	0,0
720,1576538085938;	318,5;	0,0;	0,0
720,1963500976562;	287,25;	0,0;	0,0
720,2350463867188;	267,5;	0,0;	0,0
720,2737426757812;	268,0;	0,0;	0,0
720,3124389648438;	274,5;	0,0;	0,0
720,3509521484375;	247,75;	0,0;	0,0
720,3896484375;	256,5;	0,0;	0,0
720,4282836914062;	239,25;	0,0;	0,0
720,466796875;	230,0;	0,0;	0,0
720,5054321289062;	253,25;	0,0;	0,0
720,5439453125;	272,25;	0,0;	0,0
720,5824584960938;	269,75;	0,0;	0,0
720,6210327148438;	258,0;	0,0;	0,0
720,6594848632812;	306,0;	0,0;	0,0
720,6979370117188;	346,0;	0,0;	0,0
720,7363891601562;	304,5;	0,0;	0,0
720,7747802734375;	267,75;	0,0;	0,0
720,813232421875;	248,0;	0,0;	0,0
720,8516845703125;	229,0;	0,0;	0,0
720,8900146484375;	251,5;	0,0;	0,0
720,928466796875;	260,75;	0,0;	0,0
720,9668579101562;	229,25;	0,0;	0,0
721,0050659179688;	237,0;	0,0;	0,0
721,04345703125;	206,5;	0,0;	0,0
721,0817260742188;	246,25;	0,0;	0,0
721,1199951171875;	254,25;	0,0;	0,0
721,1582641601562;	242,0;	0,0;	0,0
721,1964721679688;	249,5;	0,0;	0,0
721,2347412109375;	236,25;	0,0;	0,0
721,2730102539062;	254,0;	0,0;	0,0
721,3112182617188;	242,0;	0,0;	0,0
721,3493041992188;	253,0;	0,0;	0,0
721,3875122070312;	241,75;	0,0;	0,0
721,4255981445312;	245,0;	0,0;	0,0
721,4637451171875;	248,5;	0,0;	0,0
721,5018310546875;	230,5;	0,0;	0,0
721,5399780273438;	235,0;	0,0;	0,0
721,5780029296875;	243,25;	0,0;	0,0
721,6160888671875;	228,0;	0,0;	0,0
721,654052734375;	228,75;	0,0;	0,0
721,6920776367188;	236,25;	0,0;	0,0
721,7301635742188;	226,5;	0,0;	0,0
721,76806640625;	247,0;	0,0;	0,0
721,8060302734375;	238,5;	0,0;	0,0
721,8439331054688;	261,25;	0,0;	0,0
721,8818359375;	259,5;	0,0;	0,0
721,9197998046875;	250,75;	0,0;	0,0
721,9577026367188;	246,5;	0,0;	0,0
721,9955444335938;	238,25;	0,0;	0,0
722,0333862304688;	233,0;	0,0;	0,0
722,0712280273438;	232,75;	0,0;	0,0
722,1090698242188;	256,75;	0,0;	0,0
722,1468505859375;	241,25;	0,0;	0,0
722,1846923828125;	226,5;	0,0;	0,0
722,222412109375;	254,0;	0,0;	0,0
722,2601928710938;	235,75;	0,0;	0,0
722,2978515625;	246,25;	0,0;	0,0
722,3355712890625;	238,5;	0,0;	0,0
722,3733520507812;	238,75;	0,0;	0,0
722,4109497070312;	242,0;	0,0;	0,0
722,4486694335938;	230,25;	0,0;	0,0
722,4862670898438;	221,0;	0,0;	0,0
722,5238647460938;	246,75;	0,0;	0,0
722,5615234375;	236,25;	0,0;	0,0
722,59912109375;	224,0;	0,0;	0,0
722,6365966796875;	236,0;	0,0;	0,0
722,6741943359375;	241,0;	0,0;	0,0
722,711669921875;	248,25;	0,0;	0,0
722,7492065429688;	249,5;	0,0;	0,0
722,7867431640625;	252,0;	0,0;	0,0
722,82421875;	231,0;	0,0;	0,0
722,8616943359375;	231,0;	0,0;	0,0
722,899169921875;	244,5;	0,0;	0,0
722,9364624023438;	236,25;	0,0;	0,0
722,9739379882812;	244,5;	0,0;	0,0
723,0113525390625;	244,5;	0,0;	0,0
723,0487060546875;	233,0;	0,0;	0,0
723,0860595703125;	224,25;	0,0;	0,0
723,1234130859375;	245,0;	0,0;	0,0
723,16064453125;	217,25;	0,0;	0,0
723,1980590820312;	244,75;	0,0;	0,0
723,2353515625;	220,5;	0,0;	0,0
723,2725219726562;	238,0;	0,0;	0,0
723,309814453125;	251,0;	0,0;	0,0
723,3469848632812;	244,0;	0,0;	0,0
723,3842163085938;	230,75;	0,0;	0,0
723,4214477539062;	217,75;	0,0;	0,0
723,4586181640625;	238,0;	0,0;	0,0
723,4957885742188;	245,5;	0,0;	0,0
723,532958984375;	235,5;	0,0;	0,0
723,5700073242188;	225,25;	0,0;	0,0
723,6071166992188;	236,75;	0,0;	0,0
723,644287109375;	229,5;	0,0;	0,0
723,6813354492188;	233,25;	0,0;	0,0
723,7183837890625;	239,25;	0,0;	0,0
723,75537109375;	234,5;	0,0;	0,0
723,7923583984375;	238,25;	0,0;	0,0
723,8294067382812;	226,75;	0,0;	0,0
723,8663940429688;	224,5;	0,0;	0,0
723,9033203125;	241,0;	0,0;	0,0
723,9402465820312;	243,25;	0,0;	0,0
723,9771728515625;	236,5;	0,0;	0,0
724,0140991210938;	209,25;	0,0;	0,0
724,051025390625;	223,25;	0,0;	0,0
724,087890625;	235,5;	0,0;	0,0
724,1246337890625;	248,0;	0,0;	0,0
724,1615600585938;	233,25;	0,0;	0,0
724,1983032226562;	234,0;	0,0;	0,0
724,235107421875;	216,0;	0,0;	0,0
724,27197265625;	245,75;	0,0;	0,0
724,3087768554688;	202,5;	0,0;	0,0
724,345458984375;	229,5;	0,0;	0,0
724,3821411132812;	225,5;	0,0;	0,0
724,4188842773438;	234,5;	0,0;	0,0
724,45556640625;	258,75;	0,0;	0,0
724,4922485351562;	232,75;	0,0;	0,0
724,5288696289062;	230,25;	0,0;	0,0
724,5655517578125;	236,75;	0,0;	0,0
724,6021118164062;	208,75;	0,0;	0,0
724,6387329101562;	221,25;	0,0;	0,0
724,6753540039062;	245,75;	0,0;	0,0
724,7119140625;	245,5;	0,0;	0,0
724,7484741210938;	241,25;	0,0;	0,0
724,7849731445312;	222,75;	0,0;	0,0
724,8214721679688;	240,5;	0,0;	0,0
724,8579711914062;	218,75;	0,0;	0,0
724,8944702148438;	236,75;	0,0;	0,0
724,930908203125;	243,5;	0,0;	0,0
724,9673461914062;	242,75;	0,0;	0,0
725,0037841796875;	234,25;	0,0;	0,0
725,0401000976562;	229,75;	0,0;	0,0
725,0765991210938;	222,25;	0,0;	0,0
725,1129760742188;	238,25;	0,0;	0,0
725,1492919921875;	244,25;	0,0;	0,0
725,1856079101562;	224,5;	0,0;	0,0
725,221923828125;	213,75;	0,0;	0,0
725,2582397460938;	250,5;	0,0;	0,0
725,2945556640625;	238,5;	0,0;	0,0
725,3307495117188;	238,0;	0,0;	0,0
725,3670043945312;	226,75;	0,0;	0,0
725,4032592773438;	240,75;	0,0;	0,0
725,4393920898438;	241,75;	0,0;	0,0
725,4756469726562;	225,75;	0,0;	0,0
725,5117797851562;	229,5;	0,0;	0,0
725,5479736328125;	234,75;	0,0;	0,0
725,5840454101562;	243,75;	0,0;	0,0
725,6201782226562;	242,75;	0,0;	0,0
725,65625;	244,25;	0,0;	0,0
725,6923828125;	214,75;	0,0;	0,0
725,7284545898438;	218,75;	0,0;	0,0
725,7644653320312;	245,75;	0,0;	0,0
725,800537109375;	237,25;	0,0;	0,0
725,8365478515625;	249,5;	0,0;	0,0
725,8724975585938;	232,25;	0,0;	0,0
725,908447265625;	226,75;	0,0;	0,0
725,9444580078125;	212,25;	0,0;	0,0
725,9803466796875;	228,0;	0,0;	0,0
726,0162353515625;	254,25;	0,0;	0,0
726,0521240234375;	228,0;	0,0;	0,0
726,0880126953125;	220,75;	0,0;	0,0
726,1239624023438;	231,0;	0,0;	0,0
726,1597900390625;	242,5;	0,0;	0,0
726,195556640625;	210,5;	0,0;	0,0
726,2314453125;	229,0;	0,0;	0,0
726,2671508789062;	223,75;	0,0;	0,0
726,302978515625;	271,5;	0,0;	0,0
726,3387451171875;	228,75;	0,0;	0,0
726,3744506835938;	232,75;	0,0;	0,0
726,41015625;	241,5;	0,0;	0,0
726,4459228515625;	226,25;	0,0;	0,0
726,4815063476562;	246,75;	0,0;	0,0
726,5172119140625;	215,75;	0,0;	0,0
726,5529174804688;	242,25;	0,0;	0,0
726,5884399414062;	223,25;	0,0;	0,0
726,6240844726562;	239,5;	0,0;	0,0
726,6596069335938;	244,25;	0,0;	0,0
726,6952514648438;	226,25;	0,0;	0,0
726,7308349609375;	226,0;	0,0;	0,0
726,766357421875;	224,5;	0,0;	0,0
726,8018798828125;	236,25;	0,0;	0,0
726,83740234375;	226,5;	0,0;	0,0
726,8728637695312;	237,0;	0,0;	0,0
726,9083251953125;	240,5;	0,0;	0,0
726,9437866210938;	225,25;	0,0;	0,0
726,9791870117188;	236,5;	0,0;	0,0
727,0146484375;	223,75;	0,0;	0,0
727,0499877929688;	235,5;	0,0;	0,0
727,0853881835938;	242,75;	0,0;	0,0
727,1207885742188;	230,0;	0,0;	0,0
727,1560668945312;	243,75;	0,0;	0,0
727,19140625;	228,75;	0,0;	0,0
727,2266845703125;	243,25;	0,0;	0,0
727,261962890625;	224,75;	0,0;	0,0
727,2972412109375;	239,5;	0,0;	0,0
727,33251953125;	0,0;	0,0;	0,0
