0.0	2.0
Integration time [ms]:	1.05
Averaging Nr. [scans]:1
Smoothing Nr. [pixels]:0
Data measured with spectrometer [name]:b'1703279U8'
Wave	;Sample	;Dark	;Reference	;Scope	
[nm]	;[counts]	;[counts]	;[counts]	
 
725,3621826171875;	335,5;	0,0;	0,0
725,4813842773438;	356,0;	0,0;	0,0
725,6005249023438;	370,5;	0,0;	0,0
725,7197265625;	353,25;	0,0;	0,0
725,8388671875;	350,0;	0,0;	0,0
725,9579467773438;	379,25;	0,0;	0,0
726,0770874023438;	359,0;	0,0;	0,0
726,1961669921875;	361,25;	0,0;	0,0
726,315185546875;	377,5;	0,0;	0,0
726,4342651367188;	363,5;	0,0;	0,0
726,5532836914062;	350,0;	0,0;	0,0
726,6723022460938;	353,5;	0,0;	0,0
726,7913208007812;	351,0;	0,0;	0,0
726,9102783203125;	363,75;	0,0;	0,0
727,0292358398438;	384,75;	0,0;	0,0
727,148193359375;	381,0;	0,0;	0,0
727,26708984375;	393,75;	0,0;	0,0
727,385986328125;	378,5;	0,0;	0,0
727,5048828125;	388,75;	0,0;	0,0
727,6237182617188;	365,75;	0,0;	0,0
727,7426147460938;	360,0;	0,0;	0,0
727,8614501953125;	374,75;	0,0;	0,0
727,9801635742188;	354,25;	0,0;	0,0
728,0989379882812;	372,25;	0,0;	0,0
728,2177124023438;	365,25;	0,0;	0,0
728,3364868164062;	363,0;	0,0;	0,0
728,4552612304688;	391,75;	0,0;	0,0
728,573974609375;	371,0;	0,0;	0,0
728,6926879882812;	368,5;	0,0;	0,0
728,8113403320312;	390,5;	0,0;	0,0
728,9299926757812;	374,0;	0,0;	0,0
729,0486450195312;	376,25;	0,0;	0,0
729,1672973632812;	395,5;	0,0;	0,0
729,285888671875;	362,75;	0,0;	0,0
729,4044799804688;	383,25;	0,0;	0,0
729,5230712890625;	382,0;	0,0;	0,0
729,6416625976562;	341,5;	0,0;	0,0
729,7601928710938;	356,75;	0,0;	0,0
729,8787231445312;	388,75;	0,0;	0,0
729,9971313476562;	365,5;	0,0;	0,0
730,1156005859375;	372,0;	0,0;	0,0
730,2340698242188;	343,75;	0,0;	0,0
730,3525390625;	367,25;	0,0;	0,0
730,470947265625;	349,75;	0,0;	0,0
730,58935546875;	385,25;	0,0;	0,0
730,707763671875;	380,5;	0,0;	0,0
730,826171875;	371,25;	0,0;	0,0
730,9445190429688;	377,5;	0,0;	0,0
731,0628662109375;	406,25;	0,0;	0,0
731,18115234375;	381,5;	0,0;	0,0
731,2994995117188;	351,25;	0,0;	0,0
731,4177856445312;	397,5;	0,0;	0,0
731,5360107421875;	366,75;	0,0;	0,0
731,654296875;	372,0;	0,0;	0,0
731,7725219726562;	405,75;	0,0;	0,0
731,8906860351562;	402,0;	0,0;	0,0
732,0088500976562;	388,75;	0,0;	0,0
732,1270141601562;	389,25;	0,0;	0,0
732,2451782226562;	395,5;	0,0;	0,0
732,3633422851562;	404,25;	0,0;	0,0
732,4814453125;	483,0;	0,0;	0,0
732,5995483398438;	458,75;	0,0;	0,0
732,7176513671875;	373,0;	0,0;	0,0
732,8357543945312;	396,75;	0,0;	0,0
732,9537963867188;	376,0;	0,0;	0,0
733,07177734375;	409,0;	0,0;	0,0
733,189697265625;	380,25;	0,0;	0,0
733,3076782226562;	375,0;	0,0;	0,0
733,4256591796875;	380,25;	0,0;	0,0
733,5436401367188;	388,0;	0,0;	0,0
733,6615600585938;	409,0;	0,0;	0,0
733,7794799804688;	375,0;	0,0;	0,0
733,8973999023438;	379,0;	0,0;	0,0
734,0152587890625;	373,0;	0,0;	0,0
734,1331176757812;	368,5;	0,0;	0,0
734,2509765625;	364,5;	0,0;	0,0
734,3687744140625;	381,5;	0,0;	0,0
734,486572265625;	398,0;	0,0;	0,0
734,6043701171875;	394,0;	0,0;	0,0
734,72216796875;	394,25;	0,0;	0,0
734,8399047851562;	372,25;	0,0;	0,0
734,9576416015625;	370,25;	0,0;	0,0
735,0753173828125;	376,5;	0,0;	0,0
735,1930541992188;	392,5;	0,0;	0,0
735,3107299804688;	415,5;	0,0;	0,0
735,4283447265625;	382,0;	0,0;	0,0
735,5460205078125;	381,0;	0,0;	0,0
735,6636352539062;	405,75;	0,0;	0,0
735,78125;	390,25;	0,0;	0,0
735,8988647460938;	372,75;	0,0;	0,0
736,016357421875;	385,5;	0,0;	0,0
736,1339111328125;	387,5;	0,0;	0,0
736,25146484375;	389,75;	0,0;	0,0
736,3690185546875;	402,5;	0,0;	0,0
736,4864501953125;	384,75;	0,0;	0,0
736,6039428710938;	397,75;	0,0;	0,0
736,7213745117188;	380,25;	0,0;	0,0
736,8388671875;	377,25;	0,0;	0,0
736,9562377929688;	360,25;	0,0;	0,0
737,0736083984375;	355,25;	0,0;	0,0
737,1910400390625;	367,25;	0,0;	0,0
737,3084106445312;	383,0;	0,0;	0,0
737,4257202148438;	381,5;	0,0;	0,0
737,5430297851562;	378,5;	0,0;	0,0
737,660400390625;	377,0;	0,0;	0,0
737,7776489257812;	381,0;	0,0;	0,0
737,8948974609375;	375,0;	0,0;	0,0
738,01220703125;	389,25;	0,0;	0,0
738,1294555664062;	368,25;	0,0;	0,0
738,24658203125;	410,5;	0,0;	0,0
738,36376953125;	375,5;	0,0;	0,0
738,48095703125;	381,0;	0,0;	0,0
738,5980834960938;	388,5;	0,0;	0,0
738,7152709960938;	417,0;	0,0;	0,0
738,8323974609375;	449,75;	0,0;	0,0
738,949462890625;	427,75;	0,0;	0,0
739,0665893554688;	383,5;	0,0;	0,0
739,18359375;	378,75;	0,0;	0,0
739,3006591796875;	383,0;	0,0;	0,0
739,417724609375;	365,25;	0,0;	0,0
739,53466796875;	376,25;	0,0;	0,0
739,6517333984375;	384,75;	0,0;	0,0
739,7686767578125;	375,75;	0,0;	0,0
739,8856201171875;	376,5;	0,0;	0,0
740,0025634765625;	379,0;	0,0;	0,0
740,1195068359375;	401,0;	0,0;	0,0
740,2363891601562;	380,75;	0,0;	0,0
740,353271484375;	396,25;	0,0;	0,0
740,4701538085938;	399,25;	0,0;	0,0
740,5869750976562;	392,5;	0,0;	0,0
740,7037963867188;	394,375;	0,0;	0,0
740,8206176757812;	396,25;	0,0;	0,0
740,9373779296875;	461,0;	0,0;	0,0
741,05419921875;	460,5;	0,0;	0,0
741,1708984375;	397,75;	0,0;	0,0
741,2876586914062;	396,25;	0,0;	0,0
741,4043579101562;	377,0;	0,0;	0,0
741,5211181640625;	354,5;	0,0;	0,0
741,6377563476562;	397,25;	0,0;	0,0
741,7544555664062;	406,75;	0,0;	0,0
741,8710327148438;	413,0;	0,0;	0,0
741,9876098632812;	434,0;	0,0;	0,0
742,104248046875;	480,25;	0,0;	0,0
742,2208251953125;	659,0;	0,0;	0,0
742,33740234375;	811,25;	0,0;	0,0
742,4539794921875;	602,0;	0,0;	0,0
742,5704956054688;	459,0;	0,0;	0,0
742,68701171875;	415,0;	0,0;	0,0
742,8035278320312;	380,5;	0,0;	0,0
742,9199829101562;	419,5;	0,0;	0,0
743,036376953125;	407,5;	0,0;	0,0
743,1528930664062;	390,5;	0,0;	0,0
743,2692260742188;	390,0;	0,0;	0,0
743,3856201171875;	418,75;	0,0;	0,0
743,5020141601562;	410,25;	0,0;	0,0
743,6183471679688;	398,75;	0,0;	0,0
743,7346801757812;	456,25;	0,0;	0,0
743,8510131835938;	445,5;	0,0;	0,0
743,9673461914062;	588,25;	0,0;	0,0
744,0835571289062;	963,5;	0,0;	0,0
744,1998901367188;	1238,75;	0,0;	0,0
744,3161010742188;	841,0;	0,0;	0,0
744,4323120117188;	635,25;	0,0;	0,0
744,548583984375;	557,5;	0,0;	0,0
744,664794921875;	436,25;	0,0;	0,0
744,7809448242188;	398,75;	0,0;	0,0
744,8970947265625;	432,5;	0,0;	0,0
745,0132446289062;	357,5;	0,0;	0,0
745,1293334960938;	404,75;	0,0;	0,0
745,2454223632812;	407,5;	0,0;	0,0
745,3615112304688;	372,25;	0,0;	0,0
745,4776000976562;	404,25;	0,0;	0,0
745,5936279296875;	409,25;	0,0;	0,0
745,7096557617188;	394,75;	0,0;	0,0
745,82568359375;	391,25;	0,0;	0,0
745,941650390625;	383,5;	0,0;	0,0
746,0576171875;	400,0;	0,0;	0,0
746,173583984375;	399,0;	0,0;	0,0
746,28955078125;	427,25;	0,0;	0,0
746,4054565429688;	456,0;	0,0;	0,0
746,5213012695312;	541,25;	0,0;	0,0
746,63720703125;	918,0;	0,0;	0,0
746,7530517578125;	1729,5;	0,0;	0,0
746,868896484375;	1450,5;	0,0;	0,0
746,9846801757812;	783,0;	0,0;	0,0
747,1004638671875;	560,5;	0,0;	0,0
747,2162475585938;	466,5;	0,0;	0,0
747,3320922851562;	428,25;	0,0;	0,0
747,4478149414062;	419,75;	0,0;	0,0
747,5635375976562;	397,0;	0,0;	0,0
747,6792602539062;	433,75;	0,0;	0,0
747,794921875;	447,75;	0,0;	0,0
747,9105834960938;	389,0;	0,0;	0,0
748,0262451171875;	391,25;	0,0;	0,0
748,1419067382812;	396,0;	0,0;	0,0
748,2574462890625;	357,25;	0,0;	0,0
748,373046875;	382,75;	0,0;	0,0
748,488525390625;	390,0;	0,0;	0,0
748,6041259765625;	386,0;	0,0;	0,0
748,7196655273438;	358,5;	0,0;	0,0
748,835205078125;	377,0;	0,0;	0,0
748,95068359375;	376,75;	0,0;	0,0
749,066162109375;	409,5;	0,0;	0,0
749,181640625;	415,5;	0,0;	0,0
749,297119140625;	418,25;	0,0;	0,0
749,4125366210938;	575,0;	0,0;	0,0
749,5278930664062;	477,75;	0,0;	0,0
749,6432495117188;	370,75;	0,0;	0,0
749,7586669921875;	391,75;	0,0;	0,0
749,8740234375;	392,5;	0,0;	0,0
749,9893798828125;	376,5;	0,0;	0,0
750,1046752929688;	363,25;	0,0;	0,0
750,2199096679688;	374,25;	0,0;	0,0
750,335205078125;	376,75;	0,0;	0,0
750,4505004882812;	363,75;	0,0;	0,0
750,5657348632812;	386,25;	0,0;	0,0
750,680908203125;	397,0;	0,0;	0,0
750,796142578125;	420,5;	0,0;	0,0
750,9113159179688;	487,25;	0,0;	0,0
751,0264282226562;	717,75;	0,0;	0,0
751,1416015625;	498,5;	0,0;	0,0
751,2567749023438;	409,5;	0,0;	0,0
751,371826171875;	384,75;	0,0;	0,0
751,4869384765625;	342,0;	0,0;	0,0
751,6019897460938;	360,75;	0,0;	0,0
751,717041015625;	362,25;	0,0;	0,0
751,8320922851562;	359,25;	0,0;	0,0
751,9470825195312;	357,25;	0,0;	0,0
752,0620727539062;	367,5;	0,0;	0,0
752,1770629882812;	389,25;	0,0;	0,0
752,2919921875;	346,0;	0,0;	0,0
752,4069213867188;	364,5;	0,0;	0,0
752,5218505859375;	365,5;	0,0;	0,0
752,63671875;	385,25;	0,0;	0,0
752,7515869140625;	382,0;	0,0;	0,0
752,866455078125;	348,5;	0,0;	0,0
752,9813232421875;	389,25;	0,0;	0,0
753,0961303710938;	408,75;	0,0;	0,0
753,2108764648438;	373,0;	0,0;	0,0
753,32568359375;	353,5;	0,0;	0,0
753,4404296875;	365,75;	0,0;	0,0
753,55517578125;	365,0;	0,0;	0,0
753,669921875;	366,75;	0,0;	0,0
753,7846069335938;	355,0;	0,0;	0,0
753,8992919921875;	357,75;	0,0;	0,0
754,0139770507812;	379,25;	0,0;	0,0
754,128662109375;	359,5;	0,0;	0,0
754,2432250976562;	358,25;	0,0;	0,0
754,3578491210938;	375,5;	0,0;	0,0
754,4724731445312;	369,25;	0,0;	0,0
754,5870361328125;	377,0;	0,0;	0,0
754,7015991210938;	377,75;	0,0;	0,0
754,8161010742188;	356,5;	0,0;	0,0
754,9306640625;	369,75;	0,0;	0,0
755,045166015625;	374,0;	0,0;	0,0
755,1596069335938;	357,5;	0,0;	0,0
755,2740478515625;	355,25;	0,0;	0,0
755,3885498046875;	366,75;	0,0;	0,0
755,5029907226562;	352,75;	0,0;	0,0
755,6173706054688;	366,0;	0,0;	0,0
755,7317504882812;	356,25;	0,0;	0,0
755,8460693359375;	371,0;	0,0;	0,0
755,96044921875;	358,75;	0,0;	0,0
756,0748291015625;	362,75;	0,0;	0,0
756,1890869140625;	387,5;	0,0;	0,0
756,3034057617188;	350,0;	0,0;	0,0
756,4176635742188;	372,0;	0,0;	0,0
756,5319213867188;	375,25;	0,0;	0,0
756,6461181640625;	383,25;	0,0;	0,0
756,7603759765625;	394,25;	0,0;	0,0
756,8745727539062;	375,0;	0,0;	0,0
756,9887084960938;	374,0;	0,0;	0,0
757,1029052734375;	381,5;	0,0;	0,0
757,217041015625;	360,5;	0,0;	0,0
757,3311157226562;	363,0;	0,0;	0,0
757,4452514648438;	359,0;	0,0;	0,0
757,559326171875;	357,0;	0,0;	0,0
757,6734008789062;	350,75;	0,0;	0,0
757,7874145507812;	393,25;	0,0;	0,0
757,9013671875;	356,0;	0,0;	0,0
758,0154418945312;	364,5;	0,0;	0,0
758,1293334960938;	401,5;	0,0;	0,0
758,2433471679688;	379,25;	0,0;	0,0
758,3572998046875;	393,0;	0,0;	0,0
758,4712524414062;	464,0;	0,0;	0,0
758,5850830078125;	439,25;	0,0;	0,0
758,698974609375;	398,25;	0,0;	0,0
758,8128662109375;	372,0;	0,0;	0,0
758,9267578125;	378,0;	0,0;	0,0
759,04052734375;	392,0;	0,0;	0,0
759,1543579101562;	384,5;	0,0;	0,0
759,2681884765625;	358,5;	0,0;	0,0
759,3819580078125;	367,5;	0,0;	0,0
759,4956665039062;	365,5;	0,0;	0,0
759,6094360351562;	392,0;	0,0;	0,0
759,72314453125;	371,25;	0,0;	0,0
759,8368530273438;	353,75;	0,0;	0,0
759,9505615234375;	390,25;	0,0;	0,0
760,064208984375;	371,25;	0,0;	0,0
760,1778564453125;	385,0;	0,0;	0,0
760,2914428710938;	408,5;	0,0;	0,0
760,4050903320312;	373,75;	0,0;	0,0
760,5186157226562;	368,5;	0,0;	0,0
760,6322021484375;	365,0;	0,0;	0,0
760,7457275390625;	366,5;	0,0;	0,0
760,8593139648438;	371,25;	0,0;	0,0
760,9727783203125;	358,25;	0,0;	0,0
761,0863037109375;	397,75;	0,0;	0,0
761,1997680664062;	377,5;	0,0;	0,0
761,313232421875;	396,75;	0,0;	0,0
761,4266357421875;	369,5;	0,0;	0,0
761,5400390625;	377,5;	0,0;	0,0
761,6534423828125;	366,25;	0,0;	0,0
761,766845703125;	384,25;	0,0;	0,0
761,880126953125;	410,25;	0,0;	0,0
761,9935302734375;	390,75;	0,0;	0,0
762,1068115234375;	424,25;	0,0;	0,0
762,2200927734375;	414,0;	0,0;	0,0
762,3333740234375;	391,5;	0,0;	0,0
762,4466552734375;	369,5;	0,0;	0,0
762,5598754882812;	357,75;	0,0;	0,0
762,673095703125;	401,0;	0,0;	0,0
762,7863159179688;	380,0;	0,0;	0,0
762,8994750976562;	414,25;	0,0;	0,0
763,0126342773438;	401,25;	0,0;	0,0
763,1257934570312;	383,25;	0,0;	0,0
763,2388916015625;	373,5;	0,0;	0,0
763,3519897460938;	439,0;	0,0;	0,0
763,465087890625;	383,5;	0,0;	0,0
763,578125;	428,5;	0,0;	0,0
763,691162109375;	402,0;	0,0;	0,0
763,80419921875;	433,25;	0,0;	0,0
763,917236328125;	406,5;	0,0;	0,0
764,0302124023438;	395,75;	0,0;	0,0
764,1431884765625;	450,25;	0,0;	0,0
764,256103515625;	441,0;	0,0;	0,0
764,3690795898438;	443,0;	0,0;	0,0
764,4819946289062;	476,25;	0,0;	0,0
764,5948486328125;	454,75;	0,0;	0,0
764,707763671875;	493,5;	0,0;	0,0
764,820556640625;	490,5;	0,0;	0,0
764,9334106445312;	520,0;	0,0;	0,0
765,0462646484375;	568,0;	0,0;	0,0
765,1590576171875;	610,25;	0,0;	0,0
765,2718505859375;	660,25;	0,0;	0,0
765,384521484375;	742,25;	0,0;	0,0
765,497314453125;	792,5;	0,0;	0,0
765,6100463867188;	969,5;	0,0;	0,0
765,7227783203125;	1219,0;	0,0;	0,0
765,8353881835938;	1590,5;	0,0;	0,0
765,9480590820312;	2213,0;	0,0;	0,0
766,0607299804688;	3568,75;	0,0;	0,0
766,17333984375;	6119,75;	0,0;	0,0
766,2859497070312;	11141,0;	0,0;	0,0
766,3984985351562;	15364,75;	0,0;	0,0
766,5111083984375;	11268,0;	0,0;	0,0
766,6236572265625;	5800,75;	0,0;	0,0
766,7361450195312;	3186,25;	0,0;	0,0
766,8486938476562;	2156,0;	0,0;	0,0
766,961181640625;	1524,75;	0,0;	0,0
767,0736694335938;	1222,0;	0,0;	0,0
767,1860961914062;	1026,25;	0,0;	0,0
767,2984619140625;	885,0;	0,0;	0,0
767,4109497070312;	798,0;	0,0;	0,0
767,5233154296875;	731,25;	0,0;	0,0
767,6357421875;	650,0;	0,0;	0,0
767,748046875;	637,5;	0,0;	0,0
767,8602905273438;	578,5;	0,0;	0,0
767,97265625;	556,0;	0,0;	0,0
768,0849609375;	557,0;	0,0;	0,0
768,1972045898438;	537,5;	0,0;	0,0
768,3094482421875;	547,75;	0,0;	0,0
768,4216918945312;	507,25;	0,0;	0,0
768,533935546875;	551,0;	0,0;	0,0
768,6461181640625;	540,5;	0,0;	0,0
768,75830078125;	584,75;	0,0;	0,0
768,8704223632812;	597,75;	0,0;	0,0
768,9826049804688;	688,0;	0,0;	0,0
769,0947265625;	772,0;	0,0;	0,0
769,2068481445312;	896,25;	0,0;	0,0
769,3189086914062;	1201,75;	0,0;	0,0
769,4309692382812;	1662,75;	0,0;	0,0
769,5430297851562;	3053,5;	0,0;	0,0
769,655029296875;	6324,5;	0,0;	0,0
769,7670288085938;	11981,0;	0,0;	0,0
769,8790283203125;	10780,75;	0,0;	0,0
769,990966796875;	4851,75;	0,0;	0,0
770,1029663085938;	2329,75;	0,0;	0,0
770,2149047851562;	1398,25;	0,0;	0,0
770,3267822265625;	1066,0;	0,0;	0,0
770,4385986328125;	879,75;	0,0;	0,0
770,5504760742188;	721,25;	0,0;	0,0
770,662353515625;	675,75;	0,0;	0,0
770,7742309570312;	621,0;	0,0;	0,0
770,8860473632812;	563,5;	0,0;	0,0
770,997802734375;	548,25;	0,0;	0,0
771,1095581054688;	524,5;	0,0;	0,0
771,2213134765625;	475,25;	0,0;	0,0
771,3330078125;	453,0;	0,0;	0,0
771,4447631835938;	462,25;	0,0;	0,0
771,5564575195312;	427,0;	0,0;	0,0
771,6680908203125;	409,25;	0,0;	0,0
771,77978515625;	445,0;	0,0;	0,0
771,8914184570312;	397,0;	0,0;	0,0
772,0030517578125;	436,0;	0,0;	0,0
772,1146240234375;	383,5;	0,0;	0,0
772,2261962890625;	399,0;	0,0;	0,0
772,3377685546875;	410,5;	0,0;	0,0
772,4492797851562;	424,5;	0,0;	0,0
772,5608520507812;	417,0;	0,0;	0,0
772,6722412109375;	366,25;	0,0;	0,0
772,78369140625;	375,0;	0,0;	0,0
772,8952026367188;	410,75;	0,0;	0,0
773,0066528320312;	340,75;	0,0;	0,0
773,1181030273438;	370,0;	0,0;	0,0
773,2294921875;	385,0;	0,0;	0,0
773,3408203125;	403,0;	0,0;	0,0
773,4522094726562;	375,25;	0,0;	0,0
773,5635986328125;	399,25;	0,0;	0,0
773,6748657226562;	342,0;	0,0;	0,0
773,7861938476562;	386,5;	0,0;	0,0
773,8974609375;	361,0;	0,0;	0,0
774,0087280273438;	383,5;	0,0;	0,0
774,1199340820312;	399,5;	0,0;	0,0
774,231201171875;	382,5;	0,0;	0,0
774,3424072265625;	348,75;	0,0;	0,0
774,45361328125;	346,5;	0,0;	0,0
774,5647583007812;	390,25;	0,0;	0,0
774,6759033203125;	403,75;	0,0;	0,0
774,7870483398438;	393,25;	0,0;	0,0
774,8981323242188;	368,75;	0,0;	0,0
775,0092163085938;	388,75;	0,0;	0,0
775,1203002929688;	368,0;	0,0;	0,0
775,2313232421875;	364,25;	0,0;	0,0
775,3423461914062;	369,0;	0,0;	0,0
775,453369140625;	376,25;	0,0;	0,0
775,5643920898438;	359,75;	0,0;	0,0
775,6753540039062;	351,0;	0,0;	0,0
775,7863159179688;	356,0;	0,0;	0,0
775,897216796875;	384,5;	0,0;	0,0
776,0081176757812;	345,5;	0,0;	0,0
776,1190185546875;	394,75;	0,0;	0,0
776,2298583984375;	385,0;	0,0;	0,0
776,3407592773438;	376,5;	0,0;	0,0
776,4515991210938;	409,25;	0,0;	0,0
776,5623779296875;	448,75;	0,0;	0,0
776,6732177734375;	495,25;	0,0;	0,0
776,7839965820312;	566,5;	0,0;	0,0
776,8947143554688;	855,75;	0,0;	0,0
777,0054931640625;	1594,0;	0,0;	0,0
777,1161499023438;	2804,75;	0,0;	0,0
777,2269287109375;	2351,0;	0,0;	0,0
777,3375854492188;	2546,25;	0,0;	0,0
777,4481201171875;	2203,75;	0,0;	0,0
777,558837890625;	1317,5;	0,0;	0,0
777,6693725585938;	666,25;	0,0;	0,0
777,7799682617188;	506,0;	0,0;	0,0
777,890625;	516,5;	0,0;	0,0
778,0011596679688;	468,25;	0,0;	0,0
778,1116943359375;	423,75;	0,0;	0,0
778,2222290039062;	391,5;	0,0;	0,0
778,3327026367188;	387,5;	0,0;	0,0
778,4431762695312;	354,25;	0,0;	0,0
778,5536499023438;	354,0;	0,0;	0,0
778,6640625;	350,25;	0,0;	0,0
778,7744750976562;	339,75;	0,0;	0,0
778,8848876953125;	349,25;	0,0;	0,0
778,9953002929688;	376,0;	0,0;	0,0
779,1056518554688;	329,0;	0,0;	0,0
779,2160034179688;	352,0;	0,0;	0,0
779,3263549804688;	370,75;	0,0;	0,0
779,4365844726562;	361,5;	0,0;	0,0
779,546875;	332,5;	0,0;	0,0
779,6571655273438;	378,0;	0,0;	0,0
779,7673950195312;	418,5;	0,0;	0,0
779,8776245117188;	811,75;	0,0;	0,0
779,9878540039062;	995,25;	0,0;	0,0
780,0980224609375;	397,75;	0,0;	0,0
780,2081909179688;	347,0;	0,0;	0,0
780,3182983398438;	322,75;	0,0;	0,0
780,428466796875;	327,75;	0,0;	0,0
780,53857421875;	325,0;	0,0;	0,0
780,6486206054688;	330,75;	0,0;	0,0
780,7587280273438;	364,0;	0,0;	0,0
780,8687744140625;	344,25;	0,0;	0,0
780,978759765625;	344,25;	0,0;	0,0
781,0888061523438;	357,0;	0,0;	0,0
781,1987915039062;	346,25;	0,0;	0,0
781,3087768554688;	341,5;	0,0;	0,0
781,418701171875;	347,5;	0,0;	0,0
781,5286254882812;	349,0;	0,0;	0,0
781,6385498046875;	325,5;	0,0;	0,0
781,7484741210938;	316,0;	0,0;	0,0
781,8583374023438;	319,25;	0,0;	0,0
781,9681396484375;	317,25;	0,0;	0,0
782,0780029296875;	321,0;	0,0;	0,0
782,187744140625;	326,75;	0,0;	0,0
782,2975463867188;	344,5;	0,0;	0,0
782,4072875976562;	316,5;	0,0;	0,0
782,51708984375;	315,5;	0,0;	0,0
782,6267700195312;	312,0;	0,0;	0,0
782,7365112304688;	326,25;	0,0;	0,0
782,84619140625;	333,75;	0,0;	0,0
782,955810546875;	341,75;	0,0;	0,0
783,0654907226562;	359,75;	0,0;	0,0
783,1751098632812;	392,0;	0,0;	0,0
783,2847290039062;	360,5;	0,0;	0,0
783,394287109375;	320,25;	0,0;	0,0
783,50390625;	304,75;	0,0;	0,0
783,6134643554688;	319,75;	0,0;	0,0
783,7229614257812;	318,0;	0,0;	0,0
783,83251953125;	326,25;	0,0;	0,0
783,9420166015625;	314,5;	0,0;	0,0
784,0514526367188;	295,75;	0,0;	0,0
784,1609497070312;	310,25;	0,0;	0,0
784,2703247070312;	324,5;	0,0;	0,0
784,3797607421875;	313,0;	0,0;	0,0
784,4891967773438;	309,75;	0,0;	0,0
784,5985717773438;	301,25;	0,0;	0,0
784,7078857421875;	318,0;	0,0;	0,0
784,8172607421875;	295,25;	0,0;	0,0
784,9265747070312;	325,5;	0,0;	0,0
785,0358276367188;	279,25;	0,0;	0,0
785,1451416015625;	318,0;	0,0;	0,0
785,2543334960938;	320,5;	0,0;	0,0
785,3636474609375;	350,0;	0,0;	0,0
785,4728393554688;	327,25;	0,0;	0,0
785,58203125;	300,0;	0,0;	0,0
785,691162109375;	320,5;	0,0;	0,0
785,80029296875;	302,25;	0,0;	0,0
785,9094848632812;	300,0;	0,0;	0,0
786,0186157226562;	298,5;	0,0;	0,0
786,127685546875;	311,5;	0,0;	0,0
786,23681640625;	307,25;	0,0;	0,0
786,3458251953125;	337,5;	0,0;	0,0
786,454833984375;	317,0;	0,0;	0,0
786,5638427734375;	310,75;	0,0;	0,0
786,6727905273438;	312,75;	0,0;	0,0
786,7817993164062;	301,0;	0,0;	0,0
786,8907470703125;	296,25;	0,0;	0,0
786,999755859375;	314,0;	0,0;	0,0
787,108642578125;	321,75;	0,0;	0,0
787,217529296875;	319,25;	0,0;	0,0
787,326416015625;	303,0;	0,0;	0,0
787,4352416992188;	302,5;	0,0;	0,0
787,5440063476562;	307,5;	0,0;	0,0
787,65283203125;	310,75;	0,0;	0,0
787,7616577148438;	311,5;	0,0;	0,0
787,8704223632812;	302,5;	0,0;	0,0
787,979248046875;	343,25;	0,0;	0,0
788,0879516601562;	297,25;	0,0;	0,0
788,1966552734375;	310,75;	0,0;	0,0
788,3053588867188;	318,75;	0,0;	0,0
788,4140625;	325,75;	0,0;	0,0
788,522705078125;	322,0;	0,0;	0,0
788,63134765625;	322,5;	0,0;	0,0
788,7399291992188;	300,75;	0,0;	0,0
788,8485717773438;	321,25;	0,0;	0,0
788,9571533203125;	305,25;	0,0;	0,0
789,065673828125;	292,5;	0,0;	0,0
789,1741943359375;	314,75;	0,0;	0,0
789,28271484375;	322,25;	0,0;	0,0
789,3912353515625;	308,0;	0,0;	0,0
789,499755859375;	300,0;	0,0;	0,0
789,608154296875;	330,75;	0,0;	0,0
789,7166137695312;	310,75;	0,0;	0,0
789,8250732421875;	315,5;	0,0;	0,0
789,9334106445312;	319,0;	0,0;	0,0
790,0418090820312;	298,0;	0,0;	0,0
790,150146484375;	311,75;	0,0;	0,0
790,2584838867188;	307,75;	0,0;	0,0
790,3667602539062;	312,25;	0,0;	0,0
790,4751586914062;	325,0;	0,0;	0,0
790,5833740234375;	300,5;	0,0;	0,0
790,691650390625;	322,25;	0,0;	0,0
790,7998657226562;	298,25;	0,0;	0,0
790,9081420898438;	323,0;	0,0;	0,0
791,0162963867188;	316,5;	0,0;	0,0
791,1244506835938;	313,75;	0,0;	0,0
791,2326049804688;	329,5;	0,0;	0,0
791,3406982421875;	317,0;	0,0;	0,0
791,4488525390625;	317,5;	0,0;	0,0
791,5569458007812;	305,25;	0,0;	0,0
791,6650390625;	309,75;	0,0;	0,0
791,7730102539062;	291,25;	0,0;	0,0
791,881103515625;	312,0;	0,0;	0,0
791,9890747070312;	329,25;	0,0;	0,0
792,0971069335938;	320,0;	0,0;	0,0
792,205078125;	303,25;	0,0;	0,0
792,31298828125;	325,0;	0,0;	0,0
792,4209594726562;	280,0;	0,0;	0,0
792,5288696289062;	310,5;	0,0;	0,0
792,6367797851562;	318,0;	0,0;	0,0
792,74462890625;	305,5;	0,0;	0,0
792,8524780273438;	306,0;	0,0;	0,0
792,9603271484375;	322,5;	0,0;	0,0
793,068115234375;	305,75;	0,0;	0,0
793,1759033203125;	305,5;	0,0;	0,0
793,2837524414062;	324,25;	0,0;	0,0
793,3914794921875;	310,0;	0,0;	0,0
793,4992065429688;	317,25;	0,0;	0,0
793,60693359375;	401,25;	0,0;	0,0
793,714599609375;	400,25;	0,0;	0,0
793,822265625;	334,5;	0,0;	0,0
793,9299926757812;	318,0;	0,0;	0,0
794,03759765625;	334,0;	0,0;	0,0
794,1452026367188;	344,0;	0,0;	0,0
794,2528076171875;	332,5;	0,0;	0,0
794,3603515625;	379,25;	0,0;	0,0
794,4678955078125;	444,5;	0,0;	0,0
794,575439453125;	591,5;	0,0;	0,0
794,6829833984375;	908,5;	0,0;	0,0
794,7904663085938;	497,75;	0,0;	0,0
794,89794921875;	412,0;	0,0;	0,0
795,00537109375;	422,75;	0,0;	0,0
795,11279296875;	414,25;	0,0;	0,0
795,2202758789062;	350,25;	0,0;	0,0
795,3275756835938;	338,25;	0,0;	0,0
795,4349975585938;	333,5;	0,0;	0,0
795,5422973632812;	297,25;	0,0;	0,0
795,649658203125;	320,0;	0,0;	0,0
795,7569580078125;	306,0;	0,0;	0,0
795,8642578125;	297,0;	0,0;	0,0
795,9714965820312;	280,75;	0,0;	0,0
796,0787963867188;	311,5;	0,0;	0,0
796,1859741210938;	301,0;	0,0;	0,0
796,293212890625;	293,5;	0,0;	0,0
796,400390625;	302,5;	0,0;	0,0
796,507568359375;	295,25;	0,0;	0,0
796,6146850585938;	294,25;	0,0;	0,0
796,7218017578125;	275,5;	0,0;	0,0
796,8289794921875;	294,25;	0,0;	0,0
796,93603515625;	290,75;	0,0;	0,0
797,0430908203125;	305,0;	0,0;	0,0
797,150146484375;	313,5;	0,0;	0,0
797,2572021484375;	311,25;	0,0;	0,0
797,3641967773438;	299,5;	0,0;	0,0
797,47119140625;	306,25;	0,0;	0,0
797,578125;	288,5;	0,0;	0,0
797,68505859375;	310,25;	0,0;	0,0
797,7919921875;	292,0;	0,0;	0,0
797,89892578125;	294,75;	0,0;	0,0
798,0057983398438;	297,5;	0,0;	0,0
798,1126708984375;	289,25;	0,0;	0,0
798,219482421875;	287,5;	0,0;	0,0
798,3263549804688;	329,0;	0,0;	0,0
798,4331665039062;	267,25;	0,0;	0,0
798,5399169921875;	296,75;	0,0;	0,0
798,646728515625;	307,5;	0,0;	0,0
798,75341796875;	288,75;	0,0;	0,0
798,8601684570312;	275,5;	0,0;	0,0
798,9668579101562;	301,0;	0,0;	0,0
799,0735473632812;	292,75;	0,0;	0,0
799,18017578125;	279,75;	0,0;	0,0
799,2868041992188;	316,25;	0,0;	0,0
799,3934936523438;	318,25;	0,0;	0,0
799,5000610351562;	293,0;	0,0;	0,0
799,6066284179688;	310,25;	0,0;	0,0
799,7131958007812;	310,25;	0,0;	0,0
799,8197631835938;	400,0;	0,0;	0,0
799,9263305664062;	339,0;	0,0;	0,0
800,0327758789062;	299,0;	0,0;	0,0
800,1392822265625;	303,5;	0,0;	0,0
800,2457275390625;	292,5;	0,0;	0,0
800,3521728515625;	277,0;	0,0;	0,0
800,4586181640625;	303,5;	0,0;	0,0
800,56494140625;	278,5;	0,0;	0,0
800,67138671875;	289,25;	0,0;	0,0
800,7776489257812;	292,75;	0,0;	0,0
800,884033203125;	282,5;	0,0;	0,0
800,9902954101562;	260,25;	0,0;	0,0
801,0966186523438;	284,25;	0,0;	0,0
801,202880859375;	270,5;	0,0;	0,0
801,3091430664062;	286,25;	0,0;	0,0
801,4154052734375;	304,75;	0,0;	0,0
801,5216064453125;	286,5;	0,0;	0,0
801,6278076171875;	291,5;	0,0;	0,0
801,7339477539062;	291,25;	0,0;	0,0
801,8401489257812;	311,0;	0,0;	0,0
801,9462280273438;	292,75;	0,0;	0,0
802,0523681640625;	267,75;	0,0;	0,0
802,158447265625;	279,75;	0,0;	0,0
802,2645263671875;	290,5;	0,0;	0,0
802,37060546875;	290,5;	0,0;	0,0
802,4766235351562;	282,25;	0,0;	0,0
802,5826416015625;	301,25;	0,0;	0,0
802,6885986328125;	287,75;	0,0;	0,0
802,7945556640625;	283,75;	0,0;	0,0
802,9005737304688;	284,75;	0,0;	0,0
803,0065307617188;	287,5;	0,0;	0,0
803,1124267578125;	297,5;	0,0;	0,0
803,2183227539062;	301,75;	0,0;	0,0
803,3241577148438;	294,75;	0,0;	0,0
803,4299926757812;	294,25;	0,0;	0,0
803,5358276367188;	286,75;	0,0;	0,0
803,6416015625;	277,75;	0,0;	0,0
803,7474365234375;	279,25;	0,0;	0,0
803,8532104492188;	273,75;	0,0;	0,0
803,9589233398438;	288,0;	0,0;	0,0
804,0646362304688;	291,25;	0,0;	0,0
804,17041015625;	270,25;	0,0;	0,0
804,2760009765625;	292,5;	0,0;	0,0
804,3817138671875;	289,25;	0,0;	0,0
804,4873657226562;	326,0;	0,0;	0,0
804,5929565429688;	330,5;	0,0;	0,0
804,6985473632812;	292,5;	0,0;	0,0
804,80419921875;	291,25;	0,0;	0,0
804,9097290039062;	293,0;	0,0;	0,0
805,0153198242188;	286,5;	0,0;	0,0
805,1207275390625;	288,25;	0,0;	0,0
805,226318359375;	290,25;	0,0;	0,0
805,3316650390625;	275,5;	0,0;	0,0
805,437255859375;	307,5;	0,0;	0,0
805,5426635742188;	275,75;	0,0;	0,0
805,6481323242188;	296,5;	0,0;	0,0
805,75341796875;	287,0;	0,0;	0,0
805,8588256835938;	273,75;	0,0;	0,0
805,9641723632812;	266,75;	0,0;	0,0
806,0695190429688;	291,75;	0,0;	0,0
806,1748657226562;	298,75;	0,0;	0,0
806,2801513671875;	278,0;	0,0;	0,0
806,3853759765625;	295,75;	0,0;	0,0
806,4906005859375;	303,25;	0,0;	0,0
806,5958862304688;	264,25;	0,0;	0,0
806,7011108398438;	290,75;	0,0;	0,0
806,8062744140625;	301,5;	0,0;	0,0
806,9114379882812;	282,75;	0,0;	0,0
807,0166625976562;	289,0;	0,0;	0,0
807,1217041015625;	302,5;	0,0;	0,0
807,2268676757812;	301,25;	0,0;	0,0
807,3319091796875;	272,75;	0,0;	0,0
807,43701171875;	284,75;	0,0;	0,0
807,5420532226562;	267,5;	0,0;	0,0
807,6470947265625;	260,75;	0,0;	0,0
807,7521362304688;	304,0;	0,0;	0,0
807,8571166992188;	272,25;	0,0;	0,0
807,9620361328125;	296,75;	0,0;	0,0
808,0669555664062;	271,25;	0,0;	0,0
808,1719360351562;	291,75;	0,0;	0,0
808,27685546875;	290,5;	0,0;	0,0
808,3817138671875;	298,0;	0,0;	0,0
808,486572265625;	302,75;	0,0;	0,0
808,5914306640625;	319,0;	0,0;	0,0
808,6962890625;	287,75;	0,0;	0,0
808,8010864257812;	287,25;	0,0;	0,0
808,9058837890625;	277,5;	0,0;	0,0
809,0105590820312;	270,75;	0,0;	0,0
809,1152954101562;	268,0;	0,0;	0,0
809,2200317382812;	302,25;	0,0;	0,0
809,3247680664062;	266,0;	0,0;	0,0
809,4293823242188;	260,75;	0,0;	0,0
809,5341186523438;	288,25;	0,0;	0,0
809,6386108398438;	295,0;	0,0;	0,0
809,7433471679688;	258,5;	0,0;	0,0
809,847900390625;	279,0;	0,0;	0,0
809,9525146484375;	281,75;	0,0;	0,0
810,0570068359375;	296,0;	0,0;	0,0
810,16162109375;	306,0;	0,0;	0,0
810,2660522460938;	289,75;	0,0;	0,0
810,3705444335938;	287,5;	0,0;	0,0
810,4750366210938;	265,25;	0,0;	0,0
810,5794677734375;	287,5;	0,0;	0,0
810,6838989257812;	292,5;	0,0;	0,0
810,7882690429688;	281,75;	0,0;	0,0
810,8927001953125;	270,25;	0,0;	0,0
810,9970703125;	270,0;	0,0;	0,0
811,1013793945312;	265,25;	0,0;	0,0
811,2057495117188;	286,25;	0,0;	0,0
811,31005859375;	292,75;	0,0;	0,0
811,414306640625;	287,5;	0,0;	0,0
811,5186157226562;	272,0;	0,0;	0,0
811,6228637695312;	298,0;	0,0;	0,0
811,7271118164062;	289,0;	0,0;	0,0
811,8312377929688;	306,75;	0,0;	0,0
811,9354858398438;	254,75;	0,0;	0,0
812,0396118164062;	308,5;	0,0;	0,0
812,1437377929688;	293,5;	0,0;	0,0
812,2478637695312;	287,0;	0,0;	0,0
812,3519897460938;	288,25;	0,0;	0,0
812,4560546875;	335,75;	0,0;	0,0
812,5601196289062;	322,75;	0,0;	0,0
812,6641235351562;	302,25;	0,0;	0,0
812,7681884765625;	290,5;	0,0;	0,0
812,8721313476562;	264,5;	0,0;	0,0
812,9761352539062;	294,75;	0,0;	0,0
813,0801391601562;	288,25;	0,0;	0,0
813,1840209960938;	254,0;	0,0;	0,0
813,2879638671875;	273,25;	0,0;	0,0
813,391845703125;	271,25;	0,0;	0,0
813,4957275390625;	292,75;	0,0;	0,0
813,5995483398438;	267,0;	0,0;	0,0
813,703369140625;	273,0;	0,0;	0,0
813,8071899414062;	278,5;	0,0;	0,0
813,9110107421875;	293,0;	0,0;	0,0
814,0147094726562;	279,25;	0,0;	0,0
814,118408203125;	279,0;	0,0;	0,0
814,2222290039062;	291,0;	0,0;	0,0
814,3258666992188;	262,25;	0,0;	0,0
814,4295654296875;	272,5;	0,0;	0,0
814,533203125;	260,0;	0,0;	0,0
814,6369018554688;	281,0;	0,0;	0,0
814,740478515625;	286,5;	0,0;	0,0
814,8440551757812;	272,0;	0,0;	0,0
814,9476928710938;	261,75;	0,0;	0,0
815,0512084960938;	274,5;	0,0;	0,0
815,15478515625;	282,5;	0,0;	0,0
815,25830078125;	278,25;	0,0;	0,0
815,3617553710938;	293,0;	0,0;	0,0
815,4652099609375;	297,25;	0,0;	0,0
815,5686645507812;	262,25;	0,0;	0,0
815,6721801757812;	277,75;	0,0;	0,0
815,7755737304688;	283,0;	0,0;	0,0
815,8789672851562;	269,5;	0,0;	0,0
815,9823608398438;	289,5;	0,0;	0,0
816,085693359375;	263,5;	0,0;	0,0
816,18896484375;	298,75;	0,0;	0,0
816,2922973632812;	286,5;	0,0;	0,0
816,3955688476562;	270,25;	0,0;	0,0
816,4989013671875;	271,75;	0,0;	0,0
816,6021118164062;	276,75;	0,0;	0,0
816,705322265625;	280,25;	0,0;	0,0
816,8085327148438;	296,75;	0,0;	0,0
816,9117431640625;	282,5;	0,0;	0,0
817,014892578125;	288,75;	0,0;	0,0
817,1180419921875;	299,75;	0,0;	0,0
817,22119140625;	293,0;	0,0;	0,0
817,32421875;	287,75;	0,0;	0,0
817,4273681640625;	292,25;	0,0;	0,0
817,5303955078125;	286,25;	0,0;	0,0
817,6334228515625;	324,25;	0,0;	0,0
817,7365112304688;	307,0;	0,0;	0,0
817,8394775390625;	371,75;	0,0;	0,0
817,9424438476562;	434,0;	0,0;	0,0
818,04541015625;	612,5;	0,0;	0,0
818,1483154296875;	1362,0;	0,0;	0,0
818,251220703125;	2755,5;	0,0;	0,0
818,3541259765625;	1433,25;	0,0;	0,0
818,45703125;	864,5;	0,0;	0,0
818,5598754882812;	620,75;	0,0;	0,0
818,6627197265625;	691,0;	0,0;	0,0
818,7654418945312;	807,75;	0,0;	0,0
818,8682861328125;	541,5;	0,0;	0,0
818,9710083007812;	452,75;	0,0;	0,0
819,0737915039062;	510,75;	0,0;	0,0
819,1764526367188;	708,5;	0,0;	0,0
819,2791137695312;	1596,25;	0,0;	0,0
819,3818359375;	3690,75;	0,0;	0,0
819,4844970703125;	2316,25;	0,0;	0,0
819,587158203125;	717,75;	0,0;	0,0
819,6897583007812;	470,25;	0,0;	0,0
819,7923583984375;	418,5;	0,0;	0,0
819,8949584960938;	375,25;	0,0;	0,0
819,9974975585938;	425,5;	0,0;	0,0
820,1000366210938;	339,25;	0,0;	0,0
820,2025146484375;	319,5;	0,0;	0,0
820,3050537109375;	323,25;	0,0;	0,0
820,4075317382812;	326,0;	0,0;	0,0
820,5099487304688;	295,25;	0,0;	0,0
820,6123657226562;	314,0;	0,0;	0,0
820,7147827148438;	336,25;	0,0;	0,0
820,8171997070312;	359,5;	0,0;	0,0
820,9196166992188;	416,5;	0,0;	0,0
821,0219116210938;	525,5;	0,0;	0,0
821,1242065429688;	449,5;	0,0;	0,0
821,2265625;	401,0;	0,0;	0,0
821,3287963867188;	485,75;	0,0;	0,0
821,4310913085938;	772,75;	0,0;	0,0
821,5333251953125;	1208,25;	0,0;	0,0
821,6355590820312;	1088,75;	0,0;	0,0
821,7377319335938;	641,0;	0,0;	0,0
821,8399658203125;	542,25;	0,0;	0,0
821,9420776367188;	574,25;	0,0;	0,0
822,044189453125;	525,0;	0,0;	0,0
822,1463623046875;	603,25;	0,0;	0,0
822,2484741210938;	698,0;	0,0;	0,0
822,3505249023438;	533,0;	0,0;	0,0
822,4525756835938;	358,0;	0,0;	0,0
822,5546264648438;	358,0;	0,0;	0,0
822,6566162109375;	340,5;	0,0;	0,0
822,7586059570312;	316,0;	0,0;	0,0
822,860595703125;	316,5;	0,0;	0,0
822,9625244140625;	335,5;	0,0;	0,0
823,064453125;	310,0;	0,0;	0,0
823,166259765625;	329,25;	0,0;	0,0
823,2682495117188;	324,0;	0,0;	0,0
823,3700561523438;	277,75;	0,0;	0,0
823,471923828125;	314,25;	0,0;	0,0
823,57373046875;	284,5;	0,0;	0,0
823,6754760742188;	297,5;	0,0;	0,0
823,7772827148438;	296,5;	0,0;	0,0
823,8790283203125;	303,75;	0,0;	0,0
823,9807739257812;	359,0;	0,0;	0,0
824,08251953125;	535,75;	0,0;	0,0
824,1842041015625;	689,25;	0,0;	0,0
824,285888671875;	511,75;	0,0;	0,0
824,3875122070312;	340,75;	0,0;	0,0
824,4891357421875;	319,5;	0,0;	0,0
824,5908203125;	326,75;	0,0;	0,0
824,6923828125;	308,5;	0,0;	0,0
824,7938842773438;	306,75;	0,0;	0,0
824,8954467773438;	290,25;	0,0;	0,0
824,9969482421875;	279,75;	0,0;	0,0
825,0985107421875;	269,25;	0,0;	0,0
825,2000122070312;	263,75;	0,0;	0,0
825,3014526367188;	302,75;	0,0;	0,0
825,4028930664062;	269,0;	0,0;	0,0
825,5043334960938;	271,25;	0,0;	0,0
825,6056518554688;	289,0;	0,0;	0,0
825,7070922851562;	278,75;	0,0;	0,0
825,8084106445312;	292,25;	0,0;	0,0
825,9097900390625;	267,5;	0,0;	0,0
826,0110473632812;	281,0;	0,0;	0,0
826,1124267578125;	282,5;	0,0;	0,0
826,2136840820312;	258,25;	0,0;	0,0
826,3148803710938;	281,5;	0,0;	0,0
826,4161376953125;	266,25;	0,0;	0,0
826,517333984375;	269,0;	0,0;	0,0
826,6185302734375;	278,75;	0,0;	0,0
826,7197265625;	265,0;	0,0;	0,0
826,82080078125;	259,75;	0,0;	0,0
826,9219360351562;	260,5;	0,0;	0,0
827,0230712890625;	260,5;	0,0;	0,0
827,1241455078125;	259,25;	0,0;	0,0
827,2252197265625;	286,5;	0,0;	0,0
827,3262939453125;	250,25;	0,0;	0,0
827,42724609375;	251,25;	0,0;	0,0
827,5281982421875;	264,75;	0,0;	0,0
827,6292114257812;	261,5;	0,0;	0,0
827,7301635742188;	273,25;	0,0;	0,0
827,8311157226562;	257,0;	0,0;	0,0
827,9320068359375;	271,0;	0,0;	0,0
828,0328369140625;	258,75;	0,0;	0,0
828,1337890625;	278,25;	0,0;	0,0
828,234619140625;	256,0;	0,0;	0,0
828,3353881835938;	276,0;	0,0;	0,0
828,4362182617188;	255,0;	0,0;	0,0
828,5369873046875;	274,25;	0,0;	0,0
828,6377563476562;	266,0;	0,0;	0,0
828,7384643554688;	267,5;	0,0;	0,0
828,8392333984375;	261,5;	0,0;	0,0
828,93994140625;	257,5;	0,0;	0,0
829,0405883789062;	277,0;	0,0;	0,0
829,1412963867188;	273,5;	0,0;	0,0
829,241943359375;	255,25;	0,0;	0,0
829,3424682617188;	278,25;	0,0;	0,0
829,443115234375;	269,75;	0,0;	0,0
829,543701171875;	266,0;	0,0;	0,0
829,6442260742188;	277,75;	0,0;	0,0
829,7447509765625;	286,5;	0,0;	0,0
829,8452758789062;	257,0;	0,0;	0,0
829,94580078125;	253,75;	0,0;	0,0
830,0462036132812;	247,0;	0,0;	0,0
830,1466674804688;	289,25;	0,0;	0,0
830,2470703125;	263,25;	0,0;	0,0
830,3475341796875;	267,5;	0,0;	0,0
830,4478759765625;	262,75;	0,0;	0,0
830,5482177734375;	280,0;	0,0;	0,0
830,6485595703125;	273,5;	0,0;	0,0
830,7489013671875;	252,5;	0,0;	0,0
830,8491821289062;	286,75;	0,0;	0,0
830,949462890625;	272,25;	0,0;	0,0
831,0497436523438;	278,0;	0,0;	0,0
831,14990234375;	276,25;	0,0;	0,0
831,2501220703125;	248,25;	0,0;	0,0
831,350341796875;	260,75;	0,0;	0,0
831,4505004882812;	281,0;	0,0;	0,0
831,5506591796875;	253,5;	0,0;	0,0
831,6507568359375;	280,5;	0,0;	0,0
831,7508544921875;	284,5;	0,0;	0,0
831,8508911132812;	274,25;	0,0;	0,0
831,9510498046875;	252,5;	0,0;	0,0
832,051025390625;	266,75;	0,0;	0,0
832,1510620117188;	276,75;	0,0;	0,0
832,2509765625;	282,25;	0,0;	0,0
832,3509521484375;	275,5;	0,0;	0,0
832,4509887695312;	286,25;	0,0;	0,0
832,5509033203125;	350,25;	0,0;	0,0
832,6508178710938;	374,25;	0,0;	0,0
832,7506103515625;	288,5;	0,0;	0,0
832,8505249023438;	253,75;	0,0;	0,0
832,9503784179688;	255,5;	0,0;	0,0
833,0502319335938;	297,0;	0,0;	0,0
833,1500244140625;	316,0;	0,0;	0,0
833,249755859375;	255,25;	0,0;	0,0
833,3495483398438;	260,25;	0,0;	0,0
833,4492797851562;	272,75;	0,0;	0,0
833,5490112304688;	271,0;	0,0;	0,0
833,648681640625;	263,5;	0,0;	0,0
833,7484130859375;	280,0;	0,0;	0,0
833,8480224609375;	286,5;	0,0;	0,0
833,9476318359375;	267,25;	0,0;	0,0
834,0473022460938;	265,0;	0,0;	0,0
834,1468505859375;	268,75;	0,0;	0,0
834,2464599609375;	273,5;	0,0;	0,0
834,3460083007812;	260,25;	0,0;	0,0
834,4454956054688;	277,0;	0,0;	0,0
834,5450439453125;	276,5;	0,0;	0,0
834,64453125;	266,25;	0,0;	0,0
834,7439575195312;	239,75;	0,0;	0,0
834,8433837890625;	269,0;	0,0;	0,0
834,9428100585938;	270,0;	0,0;	0,0
835,042236328125;	257,25;	0,0;	0,0
835,1415405273438;	249,0;	0,0;	0,0
835,2409057617188;	263,25;	0,0;	0,0
835,3402709960938;	264,0;	0,0;	0,0
835,4395751953125;	247,0;	0,0;	0,0
835,538818359375;	269,5;	0,0;	0,0
835,6381225585938;	280,0;	0,0;	0,0
835,7373657226562;	252,5;	0,0;	0,0
835,8366088867188;	253,0;	0,0;	0,0
835,9358520507812;	266,0;	0,0;	0,0
836,0350341796875;	273,25;	0,0;	0,0
836,1340942382812;	259,0;	0,0;	0,0
836,2332763671875;	252,75;	0,0;	0,0
836,3323364257812;	265,5;	0,0;	0,0
836,4315185546875;	279,0;	0,0;	0,0
836,530517578125;	239,5;	0,0;	0,0
836,6295776367188;	257,0;	0,0;	0,0
836,7285766601562;	270,75;	0,0;	0,0
836,82763671875;	266,75;	0,0;	0,0
836,9265747070312;	246,0;	0,0;	0,0
837,0255737304688;	256,25;	0,0;	0,0
837,1244506835938;	241,5;	0,0;	0,0
837,2234497070312;	249,25;	0,0;	0,0
837,3223266601562;	252,75;	0,0;	0,0
837,4212036132812;	266,5;	0,0;	0,0
837,5200805664062;	263,5;	0,0;	0,0
837,618896484375;	269,75;	0,0;	0,0
837,7177124023438;	254,0;	0,0;	0,0
837,8165283203125;	265,75;	0,0;	0,0
837,915283203125;	281,25;	0,0;	0,0
838,0140380859375;	264,25;	0,0;	0,0
838,11279296875;	264,75;	0,0;	0,0
838,2114868164062;	283,0;	0,0;	0,0
838,3101196289062;	264,75;	0,0;	0,0
838,4088134765625;	284,0;	0,0;	0,0
838,5075073242188;	278,0;	0,0;	0,0
838,6061401367188;	357,75;	0,0;	0,0
838,7047119140625;	376,5;	0,0;	0,0
838,8032836914062;	263,25;	0,0;	0,0
838,9017944335938;	257,0;	0,0;	0,0
839,0003662109375;	238,5;	0,0;	0,0
839,098876953125;	270,75;	0,0;	0,0
839,1973876953125;	260,25;	0,0;	0,0
839,2958374023438;	246,5;	0,0;	0,0
839,394287109375;	241,5;	0,0;	0,0
839,4927368164062;	262,25;	0,0;	0,0
839,5911254882812;	242,75;	0,0;	0,0
839,6895141601562;	244,0;	0,0;	0,0
839,787841796875;	258,75;	0,0;	0,0
839,8861694335938;	259,25;	0,0;	0,0
839,9844970703125;	249,5;	0,0;	0,0
840,0828247070312;	262,25;	0,0;	0,0
840,1810913085938;	263,5;	0,0;	0,0
840,2793579101562;	251,75;	0,0;	0,0
840,3775024414062;	235,5;	0,0;	0,0
840,475830078125;	269,25;	0,0;	0,0
840,5739135742188;	266,0;	0,0;	0,0
840,6721801757812;	266,75;	0,0;	0,0
840,770263671875;	258,75;	0,0;	0,0
840,868408203125;	266,25;	0,0;	0,0
840,9664916992188;	275,5;	0,0;	0,0
841,0645751953125;	277,0;	0,0;	0,0
841,16259765625;	288,75;	0,0;	0,0
841,2606201171875;	253,25;	0,0;	0,0
841,3587036132812;	270,5;	0,0;	0,0
841,4566650390625;	251,75;	0,0;	0,0
841,5546264648438;	263,5;	0,0;	0,0
841,652587890625;	266,75;	0,0;	0,0
841,75048828125;	271,5;	0,0;	0,0
841,8484497070312;	253,25;	0,0;	0,0
841,9463500976562;	263,25;	0,0;	0,0
842,0441284179688;	255,25;	0,0;	0,0
842,1420288085938;	256,25;	0,0;	0,0
842,2398681640625;	262,25;	0,0;	0,0
842,337646484375;	265,0;	0,0;	0,0
842,4353637695312;	281,5;	0,0;	0,0
842,533203125;	289,0;	0,0;	0,0
842,6309204101562;	269,0;	0,0;	0,0
842,7285766601562;	242,0;	0,0;	0,0
842,8263549804688;	261,5;	0,0;	0,0
842,9240112304688;	266,25;	0,0;	0,0
843,0216064453125;	252,5;	0,0;	0,0
843,1192626953125;	259,5;	0,0;	0,0
843,2168579101562;	261,0;	0,0;	0,0
843,314453125;	272,25;	0,0;	0,0
843,4120483398438;	326,0;	0,0;	0,0
843,509521484375;	310,25;	0,0;	0,0
843,6070556640625;	267,75;	0,0;	0,0
843,7045288085938;	270,0;	0,0;	0,0
843,802001953125;	285,5;	0,0;	0,0
843,8994750976562;	278,5;	0,0;	0,0
843,9968872070312;	303,0;	0,0;	0,0
844,0942993164062;	319,25;	0,0;	0,0
844,191650390625;	294,0;	0,0;	0,0
844,2890014648438;	365,75;	0,0;	0,0
844,3863525390625;	511,75;	0,0;	0,0
844,4837036132812;	783,5;	0,0;	0,0
844,5809326171875;	951,0;	0,0;	0,0
844,6782836914062;	721,5;	0,0;	0,0
844,7754516601562;	460,75;	0,0;	0,0
844,872802734375;	395,25;	0,0;	0,0
844,9699096679688;	328,25;	0,0;	0,0
845,0671997070312;	304,5;	0,0;	0,0
845,164306640625;	294,25;	0,0;	0,0
845,2614135742188;	249,75;	0,0;	0,0
845,3585815429688;	252,5;	0,0;	0,0
845,4556884765625;	294,0;	0,0;	0,0
845,552734375;	279,25;	0,0;	0,0
845,6498413085938;	284,5;	0,0;	0,0
845,746826171875;	262,25;	0,0;	0,0
845,8438720703125;	267,75;	0,0;	0,0
845,9408569335938;	249,0;	0,0;	0,0
846,037841796875;	281,5;	0,0;	0,0
846,134765625;	254,75;	0,0;	0,0
846,231689453125;	262,0;	0,0;	0,0
846,32861328125;	245,25;	0,0;	0,0
846,4254760742188;	259,0;	0,0;	0,0
846,5223388671875;	262,25;	0,0;	0,0
846,6192016601562;	290,25;	0,0;	0,0
846,716064453125;	294,0;	0,0;	0,0
846,8128051757812;	282,5;	0,0;	0,0
846,9096069335938;	262,5;	0,0;	0,0
847,00634765625;	265,5;	0,0;	0,0
847,1030883789062;	265,0;	0,0;	0,0
847,1998291015625;	247,5;	0,0;	0,0
847,2964477539062;	246,75;	0,0;	0,0
847,3931274414062;	262,25;	0,0;	0,0
847,4898071289062;	228,75;	0,0;	0,0
847,58642578125;	262,5;	0,0;	0,0
847,6829833984375;	259,25;	0,0;	0,0
847,779541015625;	269,75;	0,0;	0,0
847,8760986328125;	262,5;	0,0;	0,0
847,97265625;	248,25;	0,0;	0,0
848,0691528320312;	262,25;	0,0;	0,0
848,1656494140625;	255,0;	0,0;	0,0
848,2621459960938;	254,75;	0,0;	0,0
848,3585815429688;	266,75;	0,0;	0,0
848,4549560546875;	263,0;	0,0;	0,0
848,5513305664062;	270,0;	0,0;	0,0
848,6478271484375;	251,5;	0,0;	0,0
848,7440795898438;	268,75;	0,0;	0,0
848,8405151367188;	244,75;	0,0;	0,0
848,936767578125;	281,0;	0,0;	0,0
849,0330810546875;	257,0;	0,0;	0,0
849,1293334960938;	242,25;	0,0;	0,0
849,2256469726562;	254,25;	0,0;	0,0
849,32177734375;	267,75;	0,0;	0,0
849,4180297851562;	256,5;	0,0;	0,0
849,51416015625;	281,5;	0,0;	0,0
849,6103515625;	314,5;	0,0;	0,0
849,7064819335938;	359,5;	0,0;	0,0
849,8026123046875;	278,75;	0,0;	0,0
849,898681640625;	262,75;	0,0;	0,0
849,9947509765625;	243,75;	0,0;	0,0
850,0908203125;	258,75;	0,0;	0,0
850,1868286132812;	269,25;	0,0;	0,0
850,2828979492188;	241,25;	0,0;	0,0
850,3788452148438;	271,25;	0,0;	0,0
850,474853515625;	253,25;	0,0;	0,0
850,5707397460938;	229,75;	0,0;	0,0
850,6666870117188;	265,0;	0,0;	0,0
850,7625732421875;	255,5;	0,0;	0,0
850,8583984375;	257,0;	0,0;	0,0
850,9542846679688;	256,0;	0,0;	0,0
851,0501098632812;	240,25;	0,0;	0,0
851,1459350585938;	250,0;	0,0;	0,0
851,24169921875;	268,25;	0,0;	0,0
851,3374633789062;	256,5;	0,0;	0,0
851,4332275390625;	252,0;	0,0;	0,0
851,5289306640625;	280,0;	0,0;	0,0
851,6246337890625;	256,0;	0,0;	0,0
851,7203369140625;	266,5;	0,0;	0,0
851,8159790039062;	256,75;	0,0;	0,0
851,91162109375;	253,5;	0,0;	0,0
852,0072631835938;	269,5;	0,0;	0,0
852,1028442382812;	247,5;	0,0;	0,0
852,1983642578125;	249,75;	0,0;	0,0
852,2939453125;	246,25;	0,0;	0,0
852,3894653320312;	263,25;	0,0;	0,0
852,4849853515625;	245,25;	0,0;	0,0
852,5804443359375;	258,75;	0,0;	0,0
852,6758422851562;	252,25;	0,0;	0,0
852,7713012695312;	234,5;	0,0;	0,0
852,86669921875;	249,0;	0,0;	0,0
852,962158203125;	228,0;	0,0;	0,0
853,0574340820312;	254,75;	0,0;	0,0
853,15283203125;	251,0;	0,0;	0,0
853,2481689453125;	248,75;	0,0;	0,0
853,343505859375;	263,5;	0,0;	0,0
853,4386596679688;	279,0;	0,0;	0,0
853,5340576171875;	266,75;	0,0;	0,0
853,6292114257812;	263,5;	0,0;	0,0
853,7244262695312;	275,25;	0,0;	0,0
853,819580078125;	289,25;	0,0;	0,0
853,9147338867188;	405,0;	0,0;	0,0
854,0098876953125;	634,25;	0,0;	0,0
854,1050415039062;	1022,75;	0,0;	0,0
854,2001342773438;	657,5;	0,0;	0,0
854,2952270507812;	293,5;	0,0;	0,0
854,3903198242188;	276,0;	0,0;	0,0
854,4852905273438;	262,0;	0,0;	0,0
854,580322265625;	273,25;	0,0;	0,0
854,6753540039062;	285,25;	0,0;	0,0
854,7703247070312;	274,75;	0,0;	0,0
854,865234375;	252,0;	0,0;	0,0
854,960205078125;	243,0;	0,0;	0,0
855,0551147460938;	242,5;	0,0;	0,0
855,1499633789062;	246,5;	0,0;	0,0
855,2448120117188;	262,75;	0,0;	0,0
855,3396606445312;	231,0;	0,0;	0,0
855,4344482421875;	273,5;	0,0;	0,0
855,5292358398438;	254,75;	0,0;	0,0
855,6240234375;	260,75;	0,0;	0,0
855,7188110351562;	247,75;	0,0;	0,0
855,8135375976562;	257,5;	0,0;	0,0
855,9082641601562;	264,25;	0,0;	0,0
856,0029296875;	252,25;	0,0;	0,0
856,0975952148438;	261,75;	0,0;	0,0
856,1921997070312;	290,25;	0,0;	0,0
856,286865234375;	252,25;	0,0;	0,0
856,3814086914062;	264,0;	0,0;	0,0
856,4760131835938;	263,0;	0,0;	0,0
856,570556640625;	283,25;	0,0;	0,0
856,6651000976562;	311,0;	0,0;	0,0
856,759521484375;	309,5;	0,0;	0,0
856,8540649414062;	284,0;	0,0;	0,0
856,948486328125;	259,5;	0,0;	0,0
857,04296875;	233,5;	0,0;	0,0
857,1373291015625;	267,5;	0,0;	0,0
857,2317504882812;	243,25;	0,0;	0,0
857,3261108398438;	247,0;	0,0;	0,0
857,4204711914062;	270,25;	0,0;	0,0
857,5147705078125;	253,75;	0,0;	0,0
857,609130859375;	270,75;	0,0;	0,0
857,703369140625;	258,0;	0,0;	0,0
857,797607421875;	239,5;	0,0;	0,0
857,891845703125;	245,5;	0,0;	0,0
857,986083984375;	244,25;	0,0;	0,0
858,0802612304688;	244,25;	0,0;	0,0
858,1744384765625;	263,5;	0,0;	0,0
858,2686157226562;	266,75;	0,0;	0,0
858,3627319335938;	236,75;	0,0;	0,0
858,4568481445312;	266,0;	0,0;	0,0
858,5509033203125;	237,5;	0,0;	0,0
858,6449584960938;	246,75;	0,0;	0,0
858,739013671875;	257,75;	0,0;	0,0
858,8330078125;	249,25;	0,0;	0,0
858,927001953125;	261,5;	0,0;	0,0
859,0209350585938;	257,25;	0,0;	0,0
859,1149291992188;	292,75;	0,0;	0,0
859,2088623046875;	324,25;	0,0;	0,0
859,302734375;	376,0;	0,0;	0,0
859,3966674804688;	423,25;	0,0;	0,0
859,4905395507812;	359,0;	0,0;	0,0
859,5843505859375;	290,25;	0,0;	0,0
859,6781616210938;	293,0;	0,0;	0,0
859,77197265625;	264,5;	0,0;	0,0
859,86572265625;	268,5;	0,0;	0,0
859,95947265625;	277,5;	0,0;	0,0
860,05322265625;	271,5;	0,0;	0,0
860,1469116210938;	264,0;	0,0;	0,0
860,2406005859375;	262,75;	0,0;	0,0
860,3342895507812;	265,25;	0,0;	0,0
860,4278564453125;	275,25;	0,0;	0,0
860,521484375;	258,25;	0,0;	0,0
860,6151123046875;	246,5;	0,0;	0,0
860,7086791992188;	259,75;	0,0;	0,0
860,8021240234375;	254,0;	0,0;	0,0
860,8956909179688;	276,0;	0,0;	0,0
860,9891357421875;	261,5;	0,0;	0,0
861,0827026367188;	270,25;	0,0;	0,0
861,1760864257812;	273,25;	0,0;	0,0
861,2695922851562;	257,0;	0,0;	0,0
861,3629760742188;	251,5;	0,0;	0,0
861,4563598632812;	256,25;	0,0;	0,0
861,5497436523438;	251,5;	0,0;	0,0
861,64306640625;	243,5;	0,0;	0,0
861,7363891601562;	263,5;	0,0;	0,0
861,8296508789062;	275,25;	0,0;	0,0
861,9229736328125;	261,0;	0,0;	0,0
862,0162353515625;	247,25;	0,0;	0,0
862,1094360351562;	280,75;	0,0;	0,0
862,20263671875;	277,25;	0,0;	0,0
862,2958374023438;	256,5;	0,0;	0,0
862,3890380859375;	260,0;	0,0;	0,0
862,482177734375;	287,5;	0,0;	0,0
862,5753173828125;	310,25;	0,0;	0,0
862,6683959960938;	410,0;	0,0;	0,0
862,761474609375;	462,25;	0,0;	0,0
862,8545532226562;	574,5;	0,0;	0,0
862,9475708007812;	530,25;	0,0;	0,0
863,0405883789062;	415,5;	0,0;	0,0
863,133544921875;	330,5;	0,0;	0,0
863,2265625;	299,5;	0,0;	0,0
863,3194580078125;	306,25;	0,0;	0,0
863,412353515625;	255,0;	0,0;	0,0
863,5052490234375;	269,75;	0,0;	0,0
863,59814453125;	255,25;	0,0;	0,0
863,6909790039062;	262,75;	0,0;	0,0
863,7838134765625;	261,0;	0,0;	0,0
863,8766479492188;	272,0;	0,0;	0,0
863,9694213867188;	258,25;	0,0;	0,0
864,0621948242188;	270,0;	0,0;	0,0
864,1549072265625;	249,25;	0,0;	0,0
864,2476806640625;	240,5;	0,0;	0,0
864,34033203125;	271,0;	0,0;	0,0
864,4330444335938;	266,0;	0,0;	0,0
864,5256958007812;	242,0;	0,0;	0,0
864,6182861328125;	245,0;	0,0;	0,0
864,7109375;	267,75;	0,0;	0,0
864,803466796875;	253,0;	0,0;	0,0
864,8960571289062;	259,0;	0,0;	0,0
864,988525390625;	270,5;	0,0;	0,0
865,0811157226562;	268,0;	0,0;	0,0
865,1735229492188;	287,75;	0,0;	0,0
865,2660522460938;	289,0;	0,0;	0,0
865,3584594726562;	291,0;	0,0;	0,0
865,4509887695312;	311,25;	0,0;	0,0
865,5432739257812;	343,5;	0,0;	0,0
865,6357421875;	316,75;	0,0;	0,0
865,72802734375;	311,0;	0,0;	0,0
865,8203125;	299,0;	0,0;	0,0
865,9127197265625;	367,5;	0,0;	0,0
866,0049438476562;	505,25;	0,0;	0,0
866,0972290039062;	647,75;	0,0;	0,0
866,189453125;	549,5;	0,0;	0,0
866,2816772460938;	314,0;	0,0;	0,0
866,3739013671875;	282,75;	0,0;	0,0
866,466064453125;	266,5;	0,0;	0,0
866,5582275390625;	262,25;	0,0;	0,0
866,6503295898438;	267,75;	0,0;	0,0
866,7424926757812;	266,0;	0,0;	0,0
866,8345336914062;	289,75;	0,0;	0,0
866,9266357421875;	260,75;	0,0;	0,0
867,0186767578125;	280,5;	0,0;	0,0
867,1107177734375;	265,75;	0,0;	0,0
867,2026977539062;	306,0;	0,0;	0,0
867,294677734375;	293,25;	0,0;	0,0
867,3865966796875;	324,75;	0,0;	0,0
867,478515625;	335,25;	0,0;	0,0
867,5704345703125;	392,25;	0,0;	0,0
867,662353515625;	468,0;	0,0;	0,0
867,7542114257812;	606,5;	0,0;	0,0
867,8460693359375;	888,25;	0,0;	0,0
867,9378662109375;	1162,5;	0,0;	0,0
868,0296630859375;	1110,5;	0,0;	0,0
868,1213989257812;	838,0;	0,0;	0,0
868,2131958007812;	854,75;	0,0;	0,0
868,3048706054688;	904,5;	0,0;	0,0
868,3965454101562;	648,75;	0,0;	0,0
868,48828125;	617,75;	0,0;	0,0
868,5799560546875;	584,5;	0,0;	0,0
868,6715698242188;	469,75;	0,0;	0,0
868,7631225585938;	492,25;	0,0;	0,0
868,8547973632812;	413,25;	0,0;	0,0
868,9462890625;	293,75;	0,0;	0,0
869,037841796875;	286,25;	0,0;	0,0
869,1293334960938;	282,75;	0,0;	0,0
869,220947265625;	266,0;	0,0;	0,0
869,3123168945312;	264,0;	0,0;	0,0
869,4038696289062;	272,75;	0,0;	0,0
869,4951782226562;	272,5;	0,0;	0,0
869,5867309570312;	275,75;	0,0;	0,0
869,6780395507812;	274,0;	0,0;	0,0
869,7693481445312;	277,0;	0,0;	0,0
869,8607177734375;	288,75;	0,0;	0,0
869,9520263671875;	286,25;	0,0;	0,0
870,0433349609375;	333,75;	0,0;	0,0
870,1345825195312;	410,5;	0,0;	0,0
870,225830078125;	444,5;	0,0;	0,0
870,3170776367188;	438,75;	0,0;	0,0
870,4082641601562;	363,0;	0,0;	0,0
870,4994506835938;	306,75;	0,0;	0,0
870,590576171875;	282,75;	0,0;	0,0
870,6817626953125;	294,75;	0,0;	0,0
870,7728271484375;	284,25;	0,0;	0,0
870,8639526367188;	347,0;	0,0;	0,0
870,9550170898438;	402,75;	0,0;	0,0
871,0460815429688;	475,75;	0,0;	0,0
871,1370849609375;	454,25;	0,0;	0,0
871,2280883789062;	360,0;	0,0;	0,0
871,319091796875;	318,5;	0,0;	0,0
871,4100341796875;	320,75;	0,0;	0,0
871,5009155273438;	290,25;	0,0;	0,0
871,5918579101562;	338,0;	0,0;	0,0
871,6828002929688;	349,0;	0,0;	0,0
871,7736206054688;	429,25;	0,0;	0,0
871,864501953125;	397,75;	0,0;	0,0
871,9552612304688;	318,5;	0,0;	0,0
872,0460815429688;	260,0;	0,0;	0,0
872,1369018554688;	278,5;	0,0;	0,0
872,2276000976562;	264,0;	0,0;	0,0
872,318359375;	273,75;	0,0;	0,0
872,4090576171875;	264,25;	0,0;	0,0
872,4996948242188;	246,5;	0,0;	0,0
872,5903930664062;	285,75;	0,0;	0,0
872,680908203125;	258,0;	0,0;	0,0
872,7716064453125;	305,25;	0,0;	0,0
872,8621826171875;	290,0;	0,0;	0,0
872,9527587890625;	268,75;	0,0;	0,0
873,0432739257812;	274,25;	0,0;	0,0
873,1338500976562;	242,5;	0,0;	0,0
873,2243041992188;	253,0;	0,0;	0,0
873,3148193359375;	260,5;	0,0;	0,0
873,4052124023438;	254,25;	0,0;	0,0
873,4957275390625;	256,5;	0,0;	0,0
873,5860595703125;	242,25;	0,0;	0,0
873,6764526367188;	231,0;	0,0;	0,0
873,766845703125;	245,75;	0,0;	0,0
873,857177734375;	251,0;	0,0;	0,0
873,9474487304688;	237,25;	0,0;	0,0
874,0377807617188;	257,5;	0,0;	0,0
874,1279907226562;	241,5;	0,0;	0,0
874,21826171875;	240,25;	0,0;	0,0
874,3084716796875;	275,0;	0,0;	0,0
874,3987426757812;	244,0;	0,0;	0,0
874,4888916015625;	269,25;	0,0;	0,0
874,5790405273438;	264,75;	0,0;	0,0
874,669189453125;	258,5;	0,0;	0,0
874,75927734375;	250,0;	0,0;	0,0
874,849365234375;	226,0;	0,0;	0,0
874,939453125;	247,0;	0,0;	0,0
875,0294799804688;	241,75;	0,0;	0,0
875,1195068359375;	250,25;	0,0;	0,0
875,20947265625;	229,0;	0,0;	0,0
875,2994995117188;	238,0;	0,0;	0,0
875,389404296875;	237,0;	0,0;	0,0
875,4793090820312;	262,25;	0,0;	0,0
875,5692749023438;	258,0;	0,0;	0,0
875,6591186523438;	233,5;	0,0;	0,0
875,7490234375;	245,5;	0,0;	0,0
875,8388061523438;	236,5;	0,0;	0,0
875,9286499023438;	256,5;	0,0;	0,0
876,0184326171875;	233,5;	0,0;	0,0
876,1082153320312;	243,25;	0,0;	0,0
876,197998046875;	254,75;	0,0;	0,0
876,2876586914062;	254,25;	0,0;	0,0
876,3773803710938;	269,25;	0,0;	0,0
876,4671020507812;	240,75;	0,0;	0,0
876,556640625;	245,0;	0,0;	0,0
876,6463012695312;	243,25;	0,0;	0,0
876,7359008789062;	256,5;	0,0;	0,0
876,8255615234375;	234,0;	0,0;	0,0
876,9150390625;	247,25;	0,0;	0,0
877,004638671875;	242,0;	0,0;	0,0
877,0941162109375;	240,5;	0,0;	0,0
877,1836547851562;	242,75;	0,0;	0,0
877,2730712890625;	231,0;	0,0;	0,0
877,3626098632812;	233,5;	0,0;	0,0
877,451904296875;	244,5;	0,0;	0,0
877,5413208007812;	249,75;	0,0;	0,0
877,6306762695312;	254,25;	0,0;	0,0
877,7200927734375;	237,0;	0,0;	0,0
877,8093872070312;	254,25;	0,0;	0,0
877,898681640625;	231,75;	0,0;	0,0
877,988037109375;	233,75;	0,0;	0,0
878,0772705078125;	233,0;	0,0;	0,0
878,16650390625;	238,5;	0,0;	0,0
878,2557373046875;	240,0;	0,0;	0,0
878,3449096679688;	235,75;	0,0;	0,0
878,43408203125;	208,75;	0,0;	0,0
878,5232543945312;	266,5;	0,0;	0,0
878,6123657226562;	240,75;	0,0;	0,0
878,7014770507812;	259,5;	0,0;	0,0
878,7905883789062;	236,75;	0,0;	0,0
878,8795776367188;	277,75;	0,0;	0,0
878,9686279296875;	234,25;	0,0;	0,0
879,0576782226562;	253,25;	0,0;	0,0
879,1466674804688;	256,25;	0,0;	0,0
879,235595703125;	261,75;	0,0;	0,0
879,3245239257812;	257,75;	0,0;	0,0
879,4134521484375;	228,5;	0,0;	0,0
879,5023193359375;	252,0;	0,0;	0,0
879,5911865234375;	243,0;	0,0;	0,0
879,6800537109375;	245,25;	0,0;	0,0
879,7688598632812;	231,25;	0,0;	0,0
879,8577270507812;	252,25;	0,0;	0,0
879,9464721679688;	227,0;	0,0;	0,0
880,0352783203125;	243,5;	0,0;	0,0
880,1239624023438;	229,5;	0,0;	0,0
880,212646484375;	239,0;	0,0;	0,0
880,3013305664062;	255,0;	0,0;	0,0
880,3899536132812;	257,5;	0,0;	0,0
880,4786376953125;	239,25;	0,0;	0,0
880,5671997070312;	240,75;	0,0;	0,0
880,6558837890625;	243,5;	0,0;	0,0
880,7444458007812;	232,5;	0,0;	0,0
880,8330078125;	242,75;	0,0;	0,0
880,9215087890625;	268,0;	0,0;	0,0
881,010009765625;	233,25;	0,0;	0,0
881,0985107421875;	237,25;	0,0;	0,0
881,18701171875;	257,25;	0,0;	0,0
881,2753295898438;	247,25;	0,0;	0,0
881,36376953125;	252,0;	0,0;	0,0
881,4521484375;	241,0;	0,0;	0,0
881,54052734375;	238,0;	0,0;	0,0
881,6288452148438;	250,0;	0,0;	0,0
881,7171630859375;	217,5;	0,0;	0,0
881,8054809570312;	282,5;	0,0;	0,0
881,8937377929688;	272,5;	0,0;	0,0
881,9819946289062;	275,0;	0,0;	0,0
882,0701904296875;	255,0;	0,0;	0,0
882,158447265625;	267,75;	0,0;	0,0
882,24658203125;	293,25;	0,0;	0,0
882,334716796875;	315,75;	0,0;	0,0
882,4228515625;	264,5;	0,0;	0,0
882,510986328125;	249,0;	0,0;	0,0
882,5990600585938;	253,75;	0,0;	0,0
882,6871337890625;	237,0;	0,0;	0,0
882,7752075195312;	246,75;	0,0;	0,0
882,8632202148438;	250,25;	0,0;	0,0
882,951171875;	235,0;	0,0;	0,0
883,0391845703125;	241,25;	0,0;	0,0
883,1271362304688;	250,5;	0,0;	0,0
883,2150268554688;	246,75;	0,0;	0,0
883,3029174804688;	235,5;	0,0;	0,0
883,390869140625;	222,5;	0,0;	0,0
883,4786987304688;	245,5;	0,0;	0,0
883,5665283203125;	243,75;	0,0;	0,0
883,6543579101562;	245,25;	0,0;	0,0
883,7421264648438;	252,25;	0,0;	0,0
883,829833984375;	239,25;	0,0;	0,0
883,9176025390625;	248,25;	0,0;	0,0
884,0053100585938;	252,25;	0,0;	0,0
884,093017578125;	223,5;	0,0;	0,0
884,1806640625;	237,5;	0,0;	0,0
884,268310546875;	225,0;	0,0;	0,0
884,3558959960938;	240,5;	0,0;	0,0
884,4435424804688;	242,5;	0,0;	0,0
884,5310668945312;	237,75;	0,0;	0,0
884,6187133789062;	236,25;	0,0;	0,0
884,7061767578125;	244,0;	0,0;	0,0
884,7937622070312;	234,25;	0,0;	0,0
884,8811645507812;	241,75;	0,0;	0,0
884,9686889648438;	237,25;	0,0;	0,0
885,0560302734375;	238,0;	0,0;	0,0
885,1434936523438;	222,0;	0,0;	0,0
885,2308349609375;	236,0;	0,0;	0,0
885,3182373046875;	223,75;	0,0;	0,0
885,4055786132812;	242,5;	0,0;	0,0
885,4928588867188;	245,5;	0,0;	0,0
885,5801391601562;	241,0;	0,0;	0,0
885,6674194335938;	248,0;	0,0;	0,0
885,7546997070312;	234,25;	0,0;	0,0
885,8419189453125;	264,75;	0,0;	0,0
885,9291381835938;	232,75;	0,0;	0,0
886,016357421875;	223,0;	0,0;	0,0
886,103515625;	253,0;	0,0;	0,0
886,1906127929688;	247,5;	0,0;	0,0
886,2777709960938;	237,75;	0,0;	0,0
886,3648071289062;	231,75;	0,0;	0,0
886,4518432617188;	243,0;	0,0;	0,0
886,5389404296875;	254,0;	0,0;	0,0
886,6259765625;	264,25;	0,0;	0,0
886,7129516601562;	246,25;	0,0;	0,0
886,7999267578125;	233,25;	0,0;	0,0
886,8869018554688;	236,5;	0,0;	0,0
886,9737548828125;	268,5;	0,0;	0,0
887,0606689453125;	225,0;	0,0;	0,0
887,1475830078125;	243,5;	0,0;	0,0
887,2344360351562;	232,0;	0,0;	0,0
887,3212890625;	235,25;	0,0;	0,0
887,4080810546875;	241,25;	0,0;	0,0
887,4948120117188;	256,0;	0,0;	0,0
887,5816650390625;	242,25;	0,0;	0,0
887,6683959960938;	240,0;	0,0;	0,0
887,7550659179688;	218,0;	0,0;	0,0
887,841796875;	241,0;	0,0;	0,0
887,9284057617188;	251,5;	0,0;	0,0
888,0150756835938;	252,0;	0,0;	0,0
888,1016235351562;	228,5;	0,0;	0,0
888,1883544921875;	242,0;	0,0;	0,0
888,2747802734375;	234,0;	0,0;	0,0
888,3614501953125;	231,25;	0,0;	0,0
888,4478759765625;	239,0;	0,0;	0,0
888,534423828125;	234,25;	0,0;	0,0
888,620849609375;	241,5;	0,0;	0,0
888,7073974609375;	216,5;	0,0;	0,0
888,7937622070312;	241,0;	0,0;	0,0
888,8801879882812;	238,0;	0,0;	0,0
888,966552734375;	247,5;	0,0;	0,0
889,0529174804688;	222,75;	0,0;	0,0
889,1392822265625;	233,25;	0,0;	0,0
889,2255859375;	235,5;	0,0;	0,0
889,3118896484375;	237,0;	0,0;	0,0
889,398193359375;	228,75;	0,0;	0,0
889,484375;	240,75;	0,0;	0,0
889,5706787109375;	237,5;	0,0;	0,0
889,6568603515625;	233,75;	0,0;	0,0
889,7430419921875;	240,5;	0,0;	0,0
889,8291625976562;	215,25;	0,0;	0,0
889,9153442382812;	234,75;	0,0;	0,0
890,0014038085938;	244,25;	0,0;	0,0
890,0874633789062;	238,25;	0,0;	0,0
890,173583984375;	231,75;	0,0;	0,0
890,2595825195312;	258,0;	0,0;	0,0
890,3456420898438;	230,75;	0,0;	0,0
890,4315795898438;	248,5;	0,0;	0,0
890,5175170898438;	242,0;	0,0;	0,0
890,6034545898438;	248,25;	0,0;	0,0
890,689453125;	243,5;	0,0;	0,0
890,7753295898438;	234,25;	0,0;	0,0
890,8611450195312;	236,75;	0,0;	0,0
890,947021484375;	235,0;	0,0;	0,0
891,0328369140625;	229,5;	0,0;	0,0
891,1187133789062;	231,75;	0,0;	0,0
891,2044067382812;	234,0;	0,0;	0,0
891,2902221679688;	237,25;	0,0;	0,0
891,3759155273438;	233,5;	0,0;	0,0
891,4616088867188;	231,25;	0,0;	0,0
891,54736328125;	238,75;	0,0;	0,0
891,6329345703125;	227,5;	0,0;	0,0
891,7186279296875;	252,0;	0,0;	0,0
891,80419921875;	229,75;	0,0;	0,0
891,8898315429688;	259,0;	0,0;	0,0
891,975341796875;	242,75;	0,0;	0,0
892,0609130859375;	238,75;	0,0;	0,0
892,1464233398438;	253,5;	0,0;	0,0
892,23193359375;	247,25;	0,0;	0,0
892,3173828125;	237,5;	0,0;	0,0
892,4028930664062;	225,75;	0,0;	0,0
892,4882202148438;	261,25;	0,0;	0,0
892,5736083984375;	239,75;	0,0;	0,0
892,6589965820312;	238,5;	0,0;	0,0
892,744384765625;	258,25;	0,0;	0,0
892,8297119140625;	255,25;	0,0;	0,0
892,9150390625;	246,0;	0,0;	0,0
893,0003051757812;	243,75;	0,0;	0,0
893,0855712890625;	228,75;	0,0;	0,0
893,1708374023438;	244,0;	0,0;	0,0
893,2559814453125;	227,5;	0,0;	0,0
893,3412475585938;	239,5;	0,0;	0,0
893,4263916015625;	243,25;	0,0;	0,0
893,5115356445312;	242,75;	0,0;	0,0
893,5966186523438;	227,5;	0,0;	0,0
893,6817016601562;	228,75;	0,0;	0,0
893,7667846679688;	240,25;	0,0;	0,0
893,8518676757812;	239,0;	0,0;	0,0
893,9368896484375;	246,75;	0,0;	0,0
894,0218505859375;	231,25;	0,0;	0,0
894,1068725585938;	234,25;	0,0;	0,0
894,1918334960938;	237,5;	0,0;	0,0
894,2767944335938;	241,5;	0,0;	0,0
894,3616333007812;	245,75;	0,0;	0,0
894,446533203125;	239,5;	0,0;	0,0
894,5313720703125;	236,5;	0,0;	0,0
894,6162109375;	245,75;	0,0;	0,0
894,7010498046875;	245,25;	0,0;	0,0
894,7858276367188;	235,25;	0,0;	0,0
894,87060546875;	228,25;	0,0;	0,0
894,9553833007812;	248,25;	0,0;	0,0
895,0401000976562;	248,75;	0,0;	0,0
895,1248168945312;	216,5;	0,0;	0,0
895,20947265625;	233,5;	0,0;	0,0
895,2940063476562;	243,5;	0,0;	0,0
895,3787231445312;	235,5;	0,0;	0,0
895,4632568359375;	237,75;	0,0;	0,0
895,5479125976562;	225,25;	0,0;	0,0
895,6324462890625;	237,25;	0,0;	0,0
895,7169799804688;	241,25;	0,0;	0,0
895,8013916015625;	246,75;	0,0;	0,0
895,885986328125;	225,75;	0,0;	0,0
895,9703369140625;	238,5;	0,0;	0,0
896,0548706054688;	248,5;	0,0;	0,0
896,1392211914062;	241,0;	0,0;	0,0
896,2236328125;	224,25;	0,0;	0,0
896,3079833984375;	220,75;	0,0;	0,0
896,392333984375;	231,75;	0,0;	0,0
896,4766235351562;	241,75;	0,0;	0,0
896,5609130859375;	232,0;	0,0;	0,0
896,6452026367188;	232,0;	0,0;	0,0
896,7294921875;	244,25;	0,0;	0,0
896,8136596679688;	241,75;	0,0;	0,0
896,8978881835938;	247,25;	0,0;	0,0
896,9819946289062;	242,0;	0,0;	0,0
897,0662231445312;	237,0;	0,0;	0,0
897,1503295898438;	256,5;	0,0;	0,0
897,234375;	240,75;	0,0;	0,0
897,3184814453125;	227,5;	0,0;	0,0
897,4025268554688;	222,0;	0,0;	0,0
897,486572265625;	242,0;	0,0;	0,0
897,570556640625;	214,25;	0,0;	0,0
897,6546020507812;	245,25;	0,0;	0,0
897,738525390625;	231,25;	0,0;	0,0
897,8224487304688;	231,0;	0,0;	0,0
897,9063720703125;	237,5;	0,0;	0,0
897,9902954101562;	236,0;	0,0;	0,0
898,0741577148438;	236,0;	0,0;	0,0
898,157958984375;	223,5;	0,0;	0,0
898,2417602539062;	255,0;	0,0;	0,0
898,3255615234375;	217,25;	0,0;	0,0
898,4093627929688;	232,0;	0,0;	0,0
898,4931030273438;	244,0;	0,0;	0,0
898,5768432617188;	241,25;	0,0;	0,0
898,6605834960938;	232,0;	0,0;	0,0
898,7442016601562;	214,5;	0,0;	0,0
898,827880859375;	229,5;	0,0;	0,0
898,9114379882812;	252,0;	0,0;	0,0
898,9950561523438;	228,0;	0,0;	0,0
899,07861328125;	235,0;	0,0;	0,0
899,1622314453125;	241,25;	0,0;	0,0
899,2456665039062;	254,25;	0,0;	0,0
899,3292846679688;	246,0;	0,0;	0,0
899,4127197265625;	250,0;	0,0;	0,0
899,4962158203125;	235,5;	0,0;	0,0
899,57958984375;	233,5;	0,0;	0,0
899,6630859375;	243,5;	0,0;	0,0
899,7463989257812;	284,0;	0,0;	0,0
899,8297729492188;	266,5;	0,0;	0,0
899,9130859375;	246,75;	0,0;	0,0
899,9963989257812;	267,75;	0,0;	0,0
900,0797119140625;	242,75;	0,0;	0,0
900,1629638671875;	249,5;	0,0;	0,0
900,2462158203125;	232,25;	0,0;	0,0
900,3294677734375;	215,75;	0,0;	0,0
900,4127197265625;	240,75;	0,0;	0,0
900,495849609375;	235,75;	0,0;	0,0
900,5790405273438;	246,25;	0,0;	0,0
900,662109375;	239,0;	0,0;	0,0
900,7451782226562;	235,75;	0,0;	0,0
900,8283081054688;	228,25;	0,0;	0,0
900,911376953125;	248,25;	0,0;	0,0
900,9944458007812;	236,5;	0,0;	0,0
901,0774536132812;	238,5;	0,0;	0,0
901,1603393554688;	240,75;	0,0;	0,0
901,2433471679688;	247,5;	0,0;	0,0
901,3262939453125;	245,0;	0,0;	0,0
901,4091796875;	242,25;	0,0;	0,0
901,4921264648438;	235,25;	0,0;	0,0
901,574951171875;	250,25;	0,0;	0,0
901,6578369140625;	253,75;	0,0;	0,0
901,7406616210938;	232,5;	0,0;	0,0
901,8234252929688;	244,0;	0,0;	0,0
901,9061889648438;	256,5;	0,0;	0,0
901,9889526367188;	233,5;	0,0;	0,0
902,0715942382812;	256,25;	0,0;	0,0
902,1543579101562;	248,75;	0,0;	0,0
902,237060546875;	249,5;	0,0;	0,0
902,3196411132812;	230,25;	0,0;	0,0
902,40234375;	251,25;	0,0;	0,0
902,48486328125;	233,0;	0,0;	0,0
902,5674438476562;	243,75;	0,0;	0,0
902,6499633789062;	276,75;	0,0;	0,0
902,7325439453125;	273,5;	0,0;	0,0
902,8150024414062;	245,5;	0,0;	0,0
902,8975219726562;	269,0;	0,0;	0,0
902,97998046875;	271,25;	0,0;	0,0
903,0624389648438;	262,75;	0,0;	0,0
903,144775390625;	249,25;	0,0;	0,0
903,227294921875;	249,25;	0,0;	0,0
903,3095703125;	255,0;	0,0;	0,0
903,391845703125;	257,5;	0,0;	0,0
903,4742431640625;	233,25;	0,0;	0,0
903,5565185546875;	249,0;	0,0;	0,0
903,6387939453125;	250,5;	0,0;	0,0
903,7210083007812;	260,5;	0,0;	0,0
903,80322265625;	242,75;	0,0;	0,0
903,8854370117188;	261,5;	0,0;	0,0
903,9675903320312;	257,5;	0,0;	0,0
904,0497436523438;	270,75;	0,0;	0,0
904,1318969726562;	281,75;	0,0;	0,0
904,2139892578125;	283,25;	0,0;	0,0
904,2960205078125;	309,25;	0,0;	0,0
904,3780517578125;	345,25;	0,0;	0,0
904,4600830078125;	362,25;	0,0;	0,0
904,5421142578125;	386,25;	0,0;	0,0
904,6240844726562;	336,5;	0,0;	0,0
904,7060546875;	309,0;	0,0;	0,0
904,7879638671875;	333,0;	0,0;	0,0
904,869873046875;	332,5;	0,0;	0,0
904,9517211914062;	328,5;	0,0;	0,0
905,0336303710938;	308,75;	0,0;	0,0
905,115478515625;	289,0;	0,0;	0,0
905,197265625;	279,0;	0,0;	0,0
905,279052734375;	258,75;	0,0;	0,0
905,36083984375;	248,75;	0,0;	0,0
905,4425659179688;	260,75;	0,0;	0,0
905,5242919921875;	225,0;	0,0;	0,0
905,6060180664062;	249,0;	0,0;	0,0
905,6876220703125;	268,75;	0,0;	0,0
905,769287109375;	256,75;	0,0;	0,0
905,8508911132812;	273,75;	0,0;	0,0
905,9324951171875;	285,5;	0,0;	0,0
906,0140380859375;	312,0;	0,0;	0,0
906,0956420898438;	300,25;	0,0;	0,0
906,1771240234375;	292,25;	0,0;	0,0
906,2586669921875;	266,75;	0,0;	0,0
906,3400268554688;	276,75;	0,0;	0,0
906,4215698242188;	282,0;	0,0;	0,0
906,5029296875;	245,5;	0,0;	0,0
906,5844116210938;	254,5;	0,0;	0,0
906,6657104492188;	260,75;	0,0;	0,0
906,7471313476562;	259,25;	0,0;	0,0
906,828369140625;	241,0;	0,0;	0,0
906,90966796875;	242,25;	0,0;	0,0
906,990966796875;	237,25;	0,0;	0,0
907,0722045898438;	245,75;	0,0;	0,0
907,1534423828125;	250,0;	0,0;	0,0
907,2346801757812;	234,0;	0,0;	0,0
907,3158569335938;	237,0;	0,0;	0,0
907,3970336914062;	238,0;	0,0;	0,0
907,4781494140625;	266,75;	0,0;	0,0
907,559326171875;	252,0;	0,0;	0,0
907,640380859375;	242,0;	0,0;	0,0
907,721435546875;	231,5;	0,0;	0,0
907,802490234375;	233,0;	0,0;	0,0
907,8834838867188;	232,25;	0,0;	0,0
907,9644775390625;	238,0;	0,0;	0,0
908,0454711914062;	231,0;	0,0;	0,0
908,1264038085938;	222,25;	0,0;	0,0
908,2073364257812;	249,5;	0,0;	0,0
908,2882080078125;	234,5;	0,0;	0,0
908,3690795898438;	238,5;	0,0;	0,0
908,449951171875;	254,0;	0,0;	0,0
908,53076171875;	218,0;	0,0;	0,0
908,6115112304688;	248,25;	0,0;	0,0
908,6923217773438;	240,25;	0,0;	0,0
908,7730712890625;	241,75;	0,0;	0,0
908,8538208007812;	237,0;	0,0;	0,0
908,9345092773438;	243,5;	0,0;	0,0
909,0151977539062;	250,5;	0,0;	0,0
909,0958251953125;	225,0;	0,0;	0,0
909,1764526367188;	225,75;	0,0;	0,0
909,257080078125;	259,0;	0,0;	0,0
909,337646484375;	269,75;	0,0;	0,0
909,418212890625;	254,75;	0,0;	0,0
909,4987182617188;	246,5;	0,0;	0,0
909,5792236328125;	239,75;	0,0;	0,0
909,65966796875;	263,5;	0,0;	0,0
909,7401733398438;	236,25;	0,0;	0,0
909,820556640625;	245,75;	0,0;	0,0
909,9010009765625;	228,75;	0,0;	0,0
909,9813842773438;	236,25;	0,0;	0,0
910,061767578125;	264,25;	0,0;	0,0
910,1420288085938;	238,0;	0,0;	0,0
910,222412109375;	246,25;	0,0;	0,0
910,3026733398438;	248,25;	0,0;	0,0
910,3829345703125;	242,0;	0,0;	0,0
910,4631958007812;	229,5;	0,0;	0,0
910,5433959960938;	238,0;	0,0;	0,0
910,6235961914062;	233,5;	0,0;	0,0
910,7037353515625;	239,0;	0,0;	0,0
910,783935546875;	233,5;	0,0;	0,0
910,864013671875;	234,75;	0,0;	0,0
910,944091796875;	251,5;	0,0;	0,0
911,024169921875;	238,25;	0,0;	0,0
911,104248046875;	255,0;	0,0;	0,0
911,1842651367188;	255,75;	0,0;	0,0
911,2642822265625;	244,25;	0,0;	0,0
911,3441772460938;	234,75;	0,0;	0,0
911,4241943359375;	235,5;	0,0;	0,0
911,5040893554688;	241,0;	0,0;	0,0
911,5840454101562;	256,75;	0,0;	0,0
911,6638793945312;	253,5;	0,0;	0,0
911,7437133789062;	258,75;	0,0;	0,0
911,8235473632812;	235,25;	0,0;	0,0
911,9033813476562;	244,0;	0,0;	0,0
911,983154296875;	237,75;	0,0;	0,0
912,0629272460938;	246,75;	0,0;	0,0
912,1426391601562;	239,75;	0,0;	0,0
912,2223510742188;	221,0;	0,0;	0,0
912,302001953125;	232,5;	0,0;	0,0
912,3817138671875;	230,25;	0,0;	0,0
912,4613037109375;	234,25;	0,0;	0,0
912,5409545898438;	224,25;	0,0;	0,0
912,6205444335938;	229,5;	0,0;	0,0
912,7000732421875;	237,25;	0,0;	0,0
912,7796630859375;	237,0;	0,0;	0,0
912,8590698242188;	249,0;	0,0;	0,0
912,9385986328125;	251,5;	0,0;	0,0
913,0181274414062;	236,75;	0,0;	0,0
913,0974731445312;	226,0;	0,0;	0,0
913,1769409179688;	242,5;	0,0;	0,0
913,2562866210938;	221,5;	0,0;	0,0
913,335693359375;	242,75;	0,0;	0,0
913,4149780273438;	233,75;	0,0;	0,0
913,494384765625;	250,0;	0,0;	0,0
913,5735473632812;	243,25;	0,0;	0,0
913,6528930664062;	246,25;	0,0;	0,0
913,7321166992188;	242,75;	0,0;	0,0
913,811279296875;	220,25;	0,0;	0,0
913,8905639648438;	233,0;	0,0;	0,0
913,9696655273438;	247,0;	0,0;	0,0
914,048828125;	227,5;	0,0;	0,0
914,1279296875;	245,25;	0,0;	0,0
914,20703125;	237,5;	0,0;	0,0
914,2861328125;	241,0;	0,0;	0,0
914,3651733398438;	237,0;	0,0;	0,0
914,4441528320312;	227,75;	0,0;	0,0
914,523193359375;	238,5;	0,0;	0,0
914,6021728515625;	232,25;	0,0;	0,0
914,68115234375;	229,0;	0,0;	0,0
914,7600708007812;	232,0;	0,0;	0,0
914,8389282226562;	246,75;	0,0;	0,0
914,9178466796875;	243,75;	0,0;	0,0
914,9967041015625;	227,5;	0,0;	0,0
915,0755004882812;	261,0;	0,0;	0,0
915,1543579101562;	239,5;	0,0;	0,0
915,2330932617188;	232,25;	0,0;	0,0
915,3118896484375;	227,25;	0,0;	0,0
915,3905639648438;	249,25;	0,0;	0,0
915,4692993164062;	238,0;	0,0;	0,0
915,5479736328125;	261,75;	0,0;	0,0
915,6266479492188;	229,5;	0,0;	0,0
915,7052612304688;	221,0;	0,0;	0,0
915,7838745117188;	263,0;	0,0;	0,0
915,8624877929688;	256,5;	0,0;	0,0
915,9409790039062;	240,25;	0,0;	0,0
916,01953125;	231,25;	0,0;	0,0
916,0980834960938;	243,5;	0,0;	0,0
916,1765747070312;	235,5;	0,0;	0,0
916,2550048828125;	237,25;	0,0;	0,0
916,3334350585938;	234,5;	0,0;	0,0
916,411865234375;	234,0;	0,0;	0,0
916,4901733398438;	245,25;	0,0;	0,0
916,568603515625;	245,25;	0,0;	0,0
916,6469116210938;	233,0;	0,0;	0,0
916,7252807617188;	232,25;	0,0;	0,0
916,803466796875;	227,0;	0,0;	0,0
916,8818359375;	234,5;	0,0;	0,0
916,9600219726562;	237,0;	0,0;	0,0
917,0382690429688;	244,5;	0,0;	0,0
917,1163940429688;	231,0;	0,0;	0,0
917,1946411132812;	242,5;	0,0;	0,0
917,272705078125;	238,25;	0,0;	0,0
917,350830078125;	234,0;	0,0;	0,0
917,428955078125;	226,75;	0,0;	0,0
917,507080078125;	233,0;	0,0;	0,0
917,5850830078125;	228,75;	0,0;	0,0
917,6630859375;	242,5;	0,0;	0,0
917,7410888671875;	247,5;	0,0;	0,0
917,819091796875;	226,75;	0,0;	0,0
917,8970336914062;	255,0;	0,0;	0,0
917,9749145507812;	237,75;	0,0;	0,0
918,0528564453125;	223,75;	0,0;	0,0
918,1307373046875;	228,25;	0,0;	0,0
918,2085571289062;	234,75;	0,0;	0,0
918,286376953125;	240,0;	0,0;	0,0
918,3641357421875;	225,75;	0,0;	0,0
918,4419555664062;	215,75;	0,0;	0,0
918,5197143554688;	229,5;	0,0;	0,0
918,597412109375;	215,25;	0,0;	0,0
918,6751098632812;	231,5;	0,0;	0,0
918,7528076171875;	234,25;	0,0;	0,0
918,8304443359375;	233,25;	0,0;	0,0
918,9080810546875;	199,25;	0,0;	0,0
918,9856567382812;	256,0;	0,0;	0,0
919,0632934570312;	217,75;	0,0;	0,0
919,1408081054688;	238,5;	0,0;	0,0
919,2183227539062;	236,5;	0,0;	0,0
919,2958374023438;	230,0;	0,0;	0,0
919,373291015625;	240,5;	0,0;	0,0
919,4507446289062;	216,25;	0,0;	0,0
919,5281982421875;	216,75;	0,0;	0,0
919,6056518554688;	223,25;	0,0;	0,0
919,6830444335938;	212,5;	0,0;	0,0
919,7603759765625;	219,75;	0,0;	0,0
919,837646484375;	235,5;	0,0;	0,0
919,9149780273438;	223,75;	0,0;	0,0
919,9921875;	212,0;	0,0;	0,0
920,0695190429688;	222,25;	0,0;	0,0
920,1466674804688;	229,75;	0,0;	0,0
920,2239990234375;	245,25;	0,0;	0,0
920,3010864257812;	240,25;	0,0;	0,0
920,3783569335938;	247,5;	0,0;	0,0
920,4553833007812;	232,0;	0,0;	0,0
920,5325927734375;	231,75;	0,0;	0,0
920,609619140625;	217,0;	0,0;	0,0
920,6866455078125;	242,5;	0,0;	0,0
920,763671875;	250,25;	0,0;	0,0
920,8406982421875;	225,0;	0,0;	0,0
920,9176635742188;	228,25;	0,0;	0,0
920,99462890625;	227,0;	0,0;	0,0
921,0715942382812;	221,75;	0,0;	0,0
921,1485595703125;	230,0;	0,0;	0,0
921,2254028320312;	248,0;	0,0;	0,0
921,30224609375;	227,0;	0,0;	0,0
921,3790893554688;	244,0;	0,0;	0,0
921,4559326171875;	246,75;	0,0;	0,0
921,53271484375;	234,0;	0,0;	0,0
921,6094970703125;	230,5;	0,0;	0,0
921,6862182617188;	247,0;	0,0;	0,0
921,7628784179688;	247,0;	0,0;	0,0
921,839599609375;	211,75;	0,0;	0,0
921,9163208007812;	231,5;	0,0;	0,0
921,992919921875;	233,75;	0,0;	0,0
922,0695190429688;	230,5;	0,0;	0,0
922,1461181640625;	229,5;	0,0;	0,0
922,2227172851562;	225,25;	0,0;	0,0
922,2992553710938;	237,25;	0,0;	0,0
922,375732421875;	221,25;	0,0;	0,0
922,4522094726562;	231,25;	0,0;	0,0
922,5286865234375;	229,75;	0,0;	0,0
922,6051025390625;	230,0;	0,0;	0,0
922,6815795898438;	244,5;	0,0;	0,0
922,7579345703125;	225,0;	0,0;	0,0
922,8342895507812;	219,5;	0,0;	0,0
922,9107055664062;	241,75;	0,0;	0,0
922,9869995117188;	245,0;	0,0;	0,0
923,063232421875;	225,75;	0,0;	0,0
923,1394653320312;	231,0;	0,0;	0,0
923,2158203125;	219,75;	0,0;	0,0
923,2919311523438;	208,25;	0,0;	0,0
923,3682250976562;	254,0;	0,0;	0,0
923,4442749023438;	223,75;	0,0;	0,0
923,5205688476562;	250,5;	0,0;	0,0
923,5966186523438;	216,25;	0,0;	0,0
923,6727294921875;	240,0;	0,0;	0,0
923,748779296875;	237,5;	0,0;	0,0
923,8248291015625;	229,75;	0,0;	0,0
923,9008178710938;	235,25;	0,0;	0,0
923,976806640625;	240,0;	0,0;	0,0
924,0527954101562;	243,0;	0,0;	0,0
924,128662109375;	245,75;	0,0;	0,0
924,2046508789062;	237,25;	0,0;	0,0
924,2805786132812;	218,5;	0,0;	0,0
924,3564453125;	238,0;	0,0;	0,0
924,4322509765625;	225,0;	0,0;	0,0
924,5081176757812;	222,25;	0,0;	0,0
924,5838623046875;	214,5;	0,0;	0,0
924,65966796875;	248,75;	0,0;	0,0
924,7353515625;	214,5;	0,0;	0,0
924,8111572265625;	252,0;	0,0;	0,0
924,8868408203125;	231,0;	0,0;	0,0
924,9624633789062;	232,25;	0,0;	0,0
925,0381469726562;	220,75;	0,0;	0,0
925,11376953125;	238,75;	0,0;	0,0
925,1893920898438;	241,0;	0,0;	0,0
925,2649536132812;	238,5;	0,0;	0,0
925,3404541015625;	234,0;	0,0;	0,0
925,416015625;	245,75;	0,0;	0,0
925,4915161132812;	263,25;	0,0;	0,0
925,5669555664062;	261,5;	0,0;	0,0
925,6423950195312;	253,25;	0,0;	0,0
925,7178955078125;	269,0;	0,0;	0,0
925,793212890625;	260,25;	0,0;	0,0
925,8685913085938;	286,5;	0,0;	0,0
925,9439697265625;	255,25;	0,0;	0,0
926,0193481445312;	292,0;	0,0;	0,0
926,0946044921875;	316,5;	0,0;	0,0
926,1698608398438;	356,0;	0,0;	0,0
926,2451171875;	337,25;	0,0;	0,0
926,3203735351562;	351,0;	0,0;	0,0
926,3955078125;	326,0;	0,0;	0,0
926,470703125;	347,25;	0,0;	0,0
926,5458374023438;	355,0;	0,0;	0,0
926,6209716796875;	0,0;	0,0;	0,0
