0.0	2.0
Integration time [ms]:	1.05
Averaging Nr. [scans]:1
Smoothing Nr. [pixels]:0
Data measured with spectrometer [name]:b'1703276U8'
Wave	;Sample	;Dark	;Reference	;Scope	
[nm]	;[counts]	;[counts]	;[counts]	
 
400,41888427734375;	254,75;	0,0;	0,0
400,4754333496094;	300,0;	0,0;	0,0
400,5319519042969;	567,75;	0,0;	0,0
400,5885009765625;	894,75;	0,0;	0,0
400,6449890136719;	395,0;	0,0;	0,0
400,7015075683594;	316,75;	0,0;	0,0
400,75799560546875;	277,0;	0,0;	0,0
400,8144836425781;	284,75;	0,0;	0,0
400,8709716796875;	253,75;	0,0;	0,0
400,92742919921875;	272,0;	0,0;	0,0
400,98388671875;	329,25;	0,0;	0,0
401,04034423828125;	323,0;	0,0;	0,0
401,09674072265625;	263,75;	0,0;	0,0
401,1531677246094;	240,75;	0,0;	0,0
401,2095947265625;	258,5;	0,0;	0,0
401,2659912109375;	258,5;	0,0;	0,0
401,3223876953125;	249,0;	0,0;	0,0
401,3787841796875;	242,75;	0,0;	0,0
401,4351806640625;	274,25;	0,0;	0,0
401,4915466308594;	342,75;	0,0;	0,0
401,54791259765625;	323,75;	0,0;	0,0
401,604248046875;	260,5;	0,0;	0,0
401,66058349609375;	267,75;	0,0;	0,0
401,7169189453125;	275,0;	0,0;	0,0
401,77325439453125;	303,25;	0,0;	0,0
401,8295593261719;	288,75;	0,0;	0,0
401,8858642578125;	279,75;	0,0;	0,0
401,942138671875;	255,75;	0,0;	0,0
401,9984436035156;	247,0;	0,0;	0,0
402,0547180175781;	268,0;	0,0;	0,0
402,1109619140625;	263,75;	0,0;	0,0
402,1672058105469;	279,75;	0,0;	0,0
402,22344970703125;	385,25;	0,0;	0,0
402,2796936035156;	341,0;	0,0;	0,0
402,3359375;	251,0;	0,0;	0,0
402,39215087890625;	266,25;	0,0;	0,0
402,44830322265625;	270,25;	0,0;	0,0
402,5045166015625;	364,5;	0,0;	0,0
402,5606994628906;	341,0;	0,0;	0,0
402,6168518066406;	263,5;	0,0;	0,0
402,6730041503906;	270,0;	0,0;	0,0
402,7291564941406;	268,0;	0,0;	0,0
402,7853088378906;	275,75;	0,0;	0,0
402,8414611816406;	263,0;	0,0;	0,0
402,8975830078125;	270,75;	0,0;	0,0
402,9537048339844;	281,0;	0,0;	0,0
403,0097961425781;	334,0;	0,0;	0,0
403,0658874511719;	510,75;	0,0;	0,0
403,1219787597656;	909,0;	0,0;	0,0
403,1780700683594;	515,25;	0,0;	0,0
403,234130859375;	333,0;	0,0;	0,0
403,2901916503906;	397,0;	0,0;	0,0
403,34625244140625;	672,75;	0,0;	0,0
403,40228271484375;	525,0;	0,0;	0,0
403,45831298828125;	408,5;	0,0;	0,0
403,51434326171875;	514,0;	0,0;	0,0
403,5703430175781;	329,0;	0,0;	0,0
403,6263122558594;	300,75;	0,0;	0,0
403,68231201171875;	263,5;	0,0;	0,0
403,7383117675781;	265,25;	0,0;	0,0
403,79425048828125;	244,5;	0,0;	0,0
403,8501892089844;	246,0;	0,0;	0,0
403,9061584472656;	256,25;	0,0;	0,0
403,96209716796875;	277,75;	0,0;	0,0
404,0180358886719;	264,5;	0,0;	0,0
404,0739440917969;	311,75;	0,0;	0,0
404,1298828125;	329,0;	0,0;	0,0
404,1857604980469;	389,0;	0,0;	0,0
404,24163818359375;	300,75;	0,0;	0,0
404,2975158691406;	275,75;	0,0;	0,0
404,3533935546875;	319,75;	0,0;	0,0
404,4092712402344;	449,5;	0,0;	0,0
404,4651184082031;	631,0;	0,0;	0,0
404,5209655761719;	837,75;	0,0;	0,0
404,5768127441406;	2038,25;	0,0;	0,0
404,6325988769531;	4507,75;	0,0;	0,0
404,68841552734375;	1945,25;	0,0;	0,0
404,7442321777344;	498,0;	0,0;	0,0
404,8000183105469;	394,75;	0,0;	0,0
404,8558349609375;	311,5;	0,0;	0,0
404,9115905761719;	292,25;	0,0;	0,0
404,96734619140625;	289,5;	0,0;	0,0
405,0231018066406;	263,5;	0,0;	0,0
405,078857421875;	261,25;	0,0;	0,0
405,1345520019531;	261,75;	0,0;	0,0
405,1902770996094;	270,5;	0,0;	0,0
405,2460021972656;	277,25;	0,0;	0,0
405,30169677734375;	301,25;	0,0;	0,0
405,3573913574219;	288,0;	0,0;	0,0
405,4130859375;	288,25;	0,0;	0,0
405,4687805175781;	284,75;	0,0;	0,0
405,5244445800781;	332,0;	0,0;	0,0
405,580078125;	321,0;	0,0;	0,0
405,6357116699219;	311,5;	0,0;	0,0
405,6913757324219;	278,0;	0,0;	0,0
405,74700927734375;	285,75;	0,0;	0,0
405,8025817871094;	347,0;	0,0;	0,0
405,85821533203125;	419,0;	0,0;	0,0
405,913818359375;	322,25;	0,0;	0,0
405,96942138671875;	307,5;	0,0;	0,0
406,02496337890625;	293,75;	0,0;	0,0
406,0805358886719;	326,0;	0,0;	0,0
406,1361083984375;	277,5;	0,0;	0,0
406,191650390625;	341,5;	0,0;	0,0
406,2471618652344;	429,75;	0,0;	0,0
406,3027038574219;	763,75;	0,0;	0,0
406,3582458496094;	1710,5;	0,0;	0,0
406,4137268066406;	3688,75;	0,0;	0,0
406,4692077636719;	1405,75;	0,0;	0,0
406,5246887207031;	375,25;	0,0;	0,0
406,5802001953125;	336,25;	0,0;	0,0
406,6356506347656;	308,75;	0,0;	0,0
406,69110107421875;	341,25;	0,0;	0,0
406,74658203125;	410,75;	0,0;	0,0
406,8019714355469;	449,5;	0,0;	0,0
406,857421875;	454,5;	0,0;	0,0
406,912841796875;	334,75;	0,0;	0,0
406,96826171875;	303,0;	0,0;	0,0
407,0236511230469;	310,25;	0,0;	0,0
407,0790710449219;	411,75;	0,0;	0,0
407,1344299316406;	842,25;	0,0;	0,0
407,1897888183594;	2230,25;	0,0;	0,0
407,24517822265625;	3103,0;	0,0;	0,0
407,3005065917969;	694,5;	0,0;	0,0
407,3558654785156;	346,75;	0,0;	0,0
407,4111633300781;	352,5;	0,0;	0,0
407,46649169921875;	331,0;	0,0;	0,0
407,5218200683594;	358,5;	0,0;	0,0
407,5771179199219;	336,75;	0,0;	0,0
407,6324157714844;	295,75;	0,0;	0,0
407,68768310546875;	438,75;	0,0;	0,0
407,7429504394531;	441,0;	0,0;	0,0
407,7981872558594;	368,25;	0,0;	0,0
407,85345458984375;	385,75;	0,0;	0,0
407,9086608886719;	419,75;	0,0;	0,0
407,96392822265625;	344,25;	0,0;	0,0
408,0191650390625;	342,5;	0,0;	0,0
408,0743408203125;	308,0;	0,0;	0,0
408,12957763671875;	290,75;	0,0;	0,0
408,18475341796875;	266,25;	0,0;	0,0
408,23992919921875;	278,0;	0,0;	0,0
408,29510498046875;	306,75;	0,0;	0,0
408,35028076171875;	325,5;	0,0;	0,0
408,4054260253906;	323,75;	0,0;	0,0
408,4605712890625;	342,0;	0,0;	0,0
408,51568603515625;	443,0;	0,0;	0,0
408,57080078125;	422,25;	0,0;	0,0
408,6259460449219;	344,25;	0,0;	0,0
408,6810302734375;	272,25;	0,0;	0,0
408,73614501953125;	300,5;	0,0;	0,0
408,79119873046875;	285,5;	0,0;	0,0
408,8462829589844;	255,0;	0,0;	0,0
408,9013366699219;	284,5;	0,0;	0,0
408,9563903808594;	272,0;	0,0;	0,0
409,0114440917969;	261,25;	0,0;	0,0
409,0664367675781;	274,75;	0,0;	0,0
409,1214904785156;	246,0;	0,0;	0,0
409,1764831542969;	262,75;	0,0;	0,0
409,2314758300781;	270,5;	0,0;	0,0
409,2864990234375;	296,0;	0,0;	0,0
409,3414611816406;	277,25;	0,0;	0,0
409,39642333984375;	253,0;	0,0;	0,0
409,451416015625;	248,75;	0,0;	0,0
409,50634765625;	286,75;	0,0;	0,0
409,5613098144531;	281,0;	0,0;	0,0
409,6162414550781;	327,0;	0,0;	0,0
409,6711730957031;	329,0;	0,0;	0,0
409,72607421875;	312,25;	0,0;	0,0
409,781005859375;	295,25;	0,0;	0,0
409,83587646484375;	318,5;	0,0;	0,0
409,8907470703125;	337,5;	0,0;	0,0
409,94561767578125;	293,0;	0,0;	0,0
410,0005187988281;	301,0;	0,0;	0,0
410,05535888671875;	309,5;	0,0;	0,0
410,1101989746094;	297,75;	0,0;	0,0
410,1650390625;	313,25;	0,0;	0,0
410,2198486328125;	297,5;	0,0;	0,0
410,2746887207031;	264,5;	0,0;	0,0
410,3294677734375;	265,75;	0,0;	0,0
410,3842468261719;	286,25;	0,0;	0,0
410,43902587890625;	307,5;	0,0;	0,0
410,4938049316406;	274,75;	0,0;	0,0
410,548583984375;	278,25;	0,0;	0,0
410,60333251953125;	269,25;	0,0;	0,0
410,6580810546875;	293,0;	0,0;	0,0
410,7127990722656;	313,25;	0,0;	0,0
410,7675476074219;	415,75;	0,0;	0,0
410,8222351074219;	475,0;	0,0;	0,0
410,876953125;	291,0;	0,0;	0,0
410,931640625;	295,5;	0,0;	0,0
410,986328125;	344,5;	0,0;	0,0
411,041015625;	409,25;	0,0;	0,0
411,095703125;	290,0;	0,0;	0,0
411,15032958984375;	278,5;	0,0;	0,0
411,2049865722656;	275,25;	0,0;	0,0
411,2596130371094;	307,75;	0,0;	0,0
411,3142395019531;	352,0;	0,0;	0,0
411,3688659667969;	333,5;	0,0;	0,0
411,4234619140625;	293,75;	0,0;	0,0
411,4780578613281;	347,5;	0,0;	0,0
411,53265380859375;	331,25;	0,0;	0,0
411,58721923828125;	275,0;	0,0;	0,0
411,64178466796875;	259,75;	0,0;	0,0
411,6963195800781;	281,75;	0,0;	0,0
411,7508544921875;	270,75;	0,0;	0,0
411,805419921875;	338,0;	0,0;	0,0
411,8598937988281;	548,0;	0,0;	0,0
411,9144287109375;	914,75;	0,0;	0,0
411,96893310546875;	419,25;	0,0;	0,0
412,0234375;	297,75;	0,0;	0,0
412,0779113769531;	342,5;	0,0;	0,0
412,13238525390625;	287,5;	0,0;	0,0
412,1868591308594;	320,25;	0,0;	0,0
412,2413330078125;	374,5;	0,0;	0,0
412,2957458496094;	330,25;	0,0;	0,0
412,3501892089844;	298,75;	0,0;	0,0
412,4046325683594;	321,75;	0,0;	0,0
412,45904541015625;	287,0;	0,0;	0,0
412,5134582519531;	264,25;	0,0;	0,0
412,56781005859375;	288,0;	0,0;	0,0
412,6222229003906;	336,75;	0,0;	0,0
412,6766052246094;	330,25;	0,0;	0,0
412,73095703125;	320,0;	0,0;	0,0
412,7853088378906;	382,0;	0,0;	0,0
412,83966064453125;	416,5;	0,0;	0,0
412,8940124511719;	286,25;	0,0;	0,0
412,94830322265625;	288,0;	0,0;	0,0
413,0025939941406;	277,0;	0,0;	0,0
413,0569152832031;	313,0;	0,0;	0,0
413,1112060546875;	345,75;	0,0;	0,0
413,1654968261719;	511,5;	0,0;	0,0
413,2197570800781;	1252,0;	0,0;	0,0
413,2740173339844;	2045,5;	0,0;	0,0
413,3282775878906;	639,0;	0,0;	0,0
413,3825378417969;	433,25;	0,0;	0,0
413,436767578125;	400,75;	0,0;	0,0
413,4909973144531;	604,0;	0,0;	0,0
413,5451965332031;	643,25;	0,0;	0,0
413,5993957519531;	314,5;	0,0;	0,0
413,65362548828125;	281,5;	0,0;	0,0
413,7077941894531;	379,25;	0,0;	0,0
413,761962890625;	449,0;	0,0;	0,0
413,8161315917969;	304,0;	0,0;	0,0
413,87030029296875;	278,75;	0,0;	0,0
413,9244079589844;	273,75;	0,0;	0,0
413,97857666015625;	267,0;	0,0;	0,0
414,0326843261719;	282,0;	0,0;	0,0
414,0867919921875;	298,5;	0,0;	0,0
414,1408996582031;	272,75;	0,0;	0,0
414,1949462890625;	309,25;	0,0;	0,0
414,2490539550781;	344,5;	0,0;	0,0
414,3031311035156;	485,0;	0,0;	0,0
414,357177734375;	1087,25;	0,0;	0,0
414,4112548828125;	2427,75;	0,0;	0,0
414,46527099609375;	2292,5;	0,0;	0,0
414,5193176269531;	439,25;	0,0;	0,0
414,5733337402344;	314,5;	0,0;	0,0
414,6273498535156;	316,5;	0,0;	0,0
414,6813659667969;	291,75;	0,0;	0,0
414,7353515625;	304,75;	0,0;	0,0
414,7893371582031;	375,5;	0,0;	0,0
414,8432922363281;	392,25;	0,0;	0,0
414,89727783203125;	292,75;	0,0;	0,0
414,95123291015625;	334,25;	0,0;	0,0
415,0051574707031;	360,25;	0,0;	0,0
415,05908203125;	304,25;	0,0;	0,0
415,1130065917969;	292,0;	0,0;	0,0
415,16693115234375;	325,75;	0,0;	0,0
415,2208251953125;	349,0;	0,0;	0,0
415,27471923828125;	375,5;	0,0;	0,0
415,32861328125;	339,0;	0,0;	0,0
415,3824768066406;	411,5;	0,0;	0,0
415,43634033203125;	620,75;	0,0;	0,0
415,49017333984375;	817,0;	0,0;	0,0
415,54400634765625;	680,75;	0,0;	0,0
415,59783935546875;	387,5;	0,0;	0,0
415,65167236328125;	361,25;	0,0;	0,0
415,7054748535156;	547,75;	0,0;	0,0
415,75927734375;	587,5;	0,0;	0,0
415,81304931640625;	416,75;	0,0;	0,0
415,8668518066406;	426,25;	0,0;	0,0
415,9206237792969;	394,5;	0,0;	0,0
415,974365234375;	377,75;	0,0;	0,0
416,02813720703125;	327,25;	0,0;	0,0
416,0818786621094;	299,75;	0,0;	0,0
416,1355895996094;	293,0;	0,0;	0,0
416,1893005371094;	291,75;	0,0;	0,0
416,2430114746094;	261,25;	0,0;	0,0
416,2967224121094;	282,5;	0,0;	0,0
416,35040283203125;	282,25;	0,0;	0,0
416,4040832519531;	315,5;	0,0;	0,0
416,457763671875;	300,25;	0,0;	0,0
416,51141357421875;	260,0;	0,0;	0,0
416,5650634765625;	283,25;	0,0;	0,0
416,6186828613281;	266,5;	0,0;	0,0
416,6723327636719;	246,75;	0,0;	0,0
416,7259521484375;	296,5;	0,0;	0,0
416,779541015625;	297,5;	0,0;	0,0
416,8331298828125;	308,5;	0,0;	0,0
416,88671875;	294,75;	0,0;	0,0
416,9403076171875;	291,75;	0,0;	0,0
416,99383544921875;	306,25;	0,0;	0,0
417,04742431640625;	306,25;	0,0;	0,0
417,1009826660156;	334,75;	0,0;	0,0
417,15447998046875;	410,75;	0,0;	0,0
417,2080383300781;	362,75;	0,0;	0,0
417,2615661621094;	462,5;	0,0;	0,0
417,3150329589844;	426,0;	0,0;	0,0
417,3685607910156;	344,25;	0,0;	0,0
417,4220275878906;	351,25;	0,0;	0,0
417,47552490234375;	341,25;	0,0;	0,0
417,5289611816406;	385,25;	0,0;	0,0
417,5824279785156;	500,0;	0,0;	0,0
417,6358642578125;	548,0;	0,0;	0,0
417,6893310546875;	428,5;	0,0;	0,0
417,74273681640625;	395,0;	0,0;	0,0
417,7961730957031;	370,0;	0,0;	0,0
417,84954833984375;	311,0;	0,0;	0,0
417,9029541015625;	277,0;	0,0;	0,0
417,9563293457031;	312,75;	0,0;	0,0
418,0096740722656;	300,5;	0,0;	0,0
418,0630798339844;	273,5;	0,0;	0,0
418,11639404296875;	351,5;	0,0;	0,0
418,1697692871094;	545,0;	0,0;	0,0
418,22308349609375;	1060,25;	0,0;	0,0
418,2763977050781;	642,75;	0,0;	0,0
418,3297119140625;	350,25;	0,0;	0,0
418,3830261230469;	299,25;	0,0;	0,0
418,4363098144531;	296,5;	0,0;	0,0
418,4895935058594;	377,0;	0,0;	0,0
418,5428466796875;	510,25;	0,0;	0,0
418,59613037109375;	392,0;	0,0;	0,0
418,6493835449219;	440,5;	0,0;	0,0
418,70263671875;	643,75;	0,0;	0,0
418,755859375;	1308,5;	0,0;	0,0
418,80908203125;	1303,5;	0,0;	0,0
418,8622741699219;	1073,0;	0,0;	0,0
418,9154968261719;	365,75;	0,0;	0,0
418,96868896484375;	309,75;	0,0;	0,0
419,0218811035156;	322,25;	0,0;	0,0
419,0750427246094;	299,75;	0,0;	0,0
419,1282043457031;	465,0;	0,0;	0,0
419,18133544921875;	789,25;	0,0;	0,0
419,2344970703125;	699,25;	0,0;	0,0
419,2876281738281;	326,5;	0,0;	0,0
419,3406982421875;	297,25;	0,0;	0,0
419,3938293457031;	300,0;	0,0;	0,0
419,4469299316406;	304,5;	0,0;	0,0
419,4999694824219;	352,5;	0,0;	0,0
419,5530700683594;	404,75;	0,0;	0,0
419,60614013671875;	503,5;	0,0;	0,0
419,6592102050781;	432,5;	0,0;	0,0
419,7122497558594;	414,75;	0,0;	0,0
419,7652893066406;	391,25;	0,0;	0,0
419,8183288574219;	585,25;	0,0;	0,0
419,8713073730469;	1236,25;	0,0;	0,0
419,9243469238281;	1563,25;	0,0;	0,0
419,9773254394531;	1579,75;	0,0;	0,0
420,03033447265625;	408,0;	0,0;	0,0
420,0832824707031;	374,5;	0,0;	0,0
420,1362609863281;	485,5;	0,0;	0,0
420,1892395019531;	893,5;	0,0;	0,0
420,2421569824219;	2179,75;	0,0;	0,0
420,29510498046875;	1351,0;	0,0;	0,0
420,3480529785156;	387,75;	0,0;	0,0
420,40093994140625;	401,25;	0,0;	0,0
420,453857421875;	522,25;	0,0;	0,0
420,5067138671875;	311,75;	0,0;	0,0
420,5596008300781;	303,5;	0,0;	0,0
420,6124572753906;	300,75;	0,0;	0,0
420,66534423828125;	309,0;	0,0;	0,0
420,7181701660156;	330,0;	0,0;	0,0
420,7710266113281;	334,75;	0,0;	0,0
420,8238525390625;	311,75;	0,0;	0,0
420,8766784667969;	295,75;	0,0;	0,0
420,9294738769531;	359,0;	0,0;	0,0
420,9822998046875;	308,0;	0,0;	0,0
421,03509521484375;	407,25;	0,0;	0,0
421,0878601074219;	654,75;	0,0;	0,0
421,1406555175781;	417,25;	0,0;	0,0
421,1933898925781;	279,5;	0,0;	0,0
421,24615478515625;	272,0;	0,0;	0,0
421,2988586425781;	274,5;	0,0;	0,0
421,35162353515625;	296,25;	0,0;	0,0
421,4043273925781;	343,5;	0,0;	0,0
421,45703125;	351,25;	0,0;	0,0
421,5097351074219;	287,5;	0,0;	0,0
421,56243896484375;	331,25;	0,0;	0,0
421,6151123046875;	421,5;	0,0;	0,0
421,66778564453125;	488,75;	0,0;	0,0
421,7204284667969;	385,0;	0,0;	0,0
421,7730712890625;	348,25;	0,0;	0,0
421,8257141113281;	424,0;	0,0;	0,0
421,8783264160156;	358,25;	0,0;	0,0
421,9309387207031;	440,75;	0,0;	0,0
421,9835205078125;	794,0;	0,0;	0,0
422,0361328125;	490,0;	0,0;	0,0
422,0887145996094;	353,0;	0,0;	0,0
422,14129638671875;	331,0;	0,0;	0,0
422,19384765625;	361,25;	0,0;	0,0
422,2464294433594;	523,0;	0,0;	0,0
422,2989501953125;	628,5;	0,0;	0,0
422,35150146484375;	391,0;	0,0;	0,0
422,4040222167969;	437,0;	0,0;	0,0
422,45654296875;	592,0;	0,0;	0,0
422,509033203125;	629,0;	0,0;	0,0
422,5615234375;	806,25;	0,0;	0,0
422,614013671875;	1554,0;	0,0;	0,0
422,66650390625;	3545,0;	0,0;	0,0
422,71893310546875;	7685,0;	0,0;	0,0
422,7713928222656;	4203,0;	0,0;	0,0
422,8238525390625;	1627,5;	0,0;	0,0
422,8762512207031;	687,5;	0,0;	0,0
422,9286804199219;	463,0;	0,0;	0,0
422,9811096191406;	408,0;	0,0;	0,0
423,0334777832031;	376,5;	0,0;	0,0
423,08587646484375;	321,25;	0,0;	0,0
423,1382141113281;	298,75;	0,0;	0,0
423,19061279296875;	311,5;	0,0;	0,0
423,24298095703125;	325,0;	0,0;	0,0
423,2953186035156;	360,75;	0,0;	0,0
423,3476257324219;	540,5;	0,0;	0,0
423,3999938964844;	899,75;	0,0;	0,0
423,4522705078125;	702,25;	0,0;	0,0
423,5046081542969;	369,5;	0,0;	0,0
423,556884765625;	563,75;	0,0;	0,0
423,60919189453125;	1049,25;	0,0;	0,0
423,6614685058594;	1554,75;	0,0;	0,0
423,7137145996094;	520,5;	0,0;	0,0
423,7659912109375;	374,75;	0,0;	0,0
423,8182373046875;	421,75;	0,0;	0,0
423,8704528808594;	441,5;	0,0;	0,0
423,92266845703125;	576,75;	0,0;	0,0
423,9748840332031;	539,25;	0,0;	0,0
424,027099609375;	444,25;	0,0;	0,0
424,07928466796875;	340,75;	0,0;	0,0
424,1314697265625;	294,25;	0,0;	0,0
424,18365478515625;	273,75;	0,0;	0,0
424,2358093261719;	289,5;	0,0;	0,0
424,2879333496094;	288,0;	0,0;	0,0
424,340087890625;	314,75;	0,0;	0,0
424,3921813964844;	291,5;	0,0;	0,0
424,4443054199219;	295,75;	0,0;	0,0
424,4964294433594;	288,75;	0,0;	0,0
424,54852294921875;	342,0;	0,0;	0,0
424,6006164550781;	372,25;	0,0;	0,0
424,6526794433594;	326,75;	0,0;	0,0
424,70477294921875;	353,75;	0,0;	0,0
424,7568359375;	463,75;	0,0;	0,0
424,8088684082031;	584,5;	0,0;	0,0
424,8609313964844;	433,5;	0,0;	0,0
424,9129333496094;	395,25;	0,0;	0,0
424,9649353027344;	494,75;	0,0;	0,0
425,0169677734375;	926,75;	0,0;	0,0
425,0689697265625;	2024,75;	0,0;	0,0
425,1209411621094;	2431,25;	0,0;	0,0
425,17291259765625;	1085,0;	0,0;	0,0
425,2248840332031;	305,75;	0,0;	0,0
425,2768249511719;	282,75;	0,0;	0,0
425,3287658691406;	294,25;	0,0;	0,0
425,3807067871094;	304,5;	0,0;	0,0
425,4326171875;	324,5;	0,0;	0,0
425,48455810546875;	457,75;	0,0;	0,0
425,53643798828125;	337,75;	0,0;	0,0
425,58831787109375;	305,0;	0,0;	0,0
425,6401672363281;	293,75;	0,0;	0,0
425,69207763671875;	309,25;	0,0;	0,0
425,7439270019531;	259,25;	0,0;	0,0
425,7957763671875;	304,75;	0,0;	0,0
425,8476257324219;	288,0;	0,0;	0,0
425,8994445800781;	339,25;	0,0;	0,0
425,9512634277344;	413,5;	0,0;	0,0
426,0030822753906;	720,5;	0,0;	0,0
426,05487060546875;	1697,25;	0,0;	0,0
426,1066589355469;	3187,5;	0,0;	0,0
426,158447265625;	1019,5;	0,0;	0,0
426,210205078125;	410,25;	0,0;	0,0
426,261962890625;	352,25;	0,0;	0,0
426,3136901855469;	330,0;	0,0;	0,0
426,3654479980469;	386,75;	0,0;	0,0
426,41717529296875;	313,25;	0,0;	0,0
426,4688720703125;	289,5;	0,0;	0,0
426,5205993652344;	294,5;	0,0;	0,0
426,572265625;	302,5;	0,0;	0,0
426,62396240234375;	306,25;	0,0;	0,0
426,6756286621094;	298,5;	0,0;	0,0
426,727294921875;	302,25;	0,0;	0,0
426,7789306640625;	333,75;	0,0;	0,0
426,83056640625;	364,25;	0,0;	0,0
426,8822021484375;	320,5;	0,0;	0,0
426,93377685546875;	323,75;	0,0;	0,0
426,98541259765625;	333,5;	0,0;	0,0
427,0370178222656;	419,75;	0,0;	0,0
427,0885925292969;	770,5;	0,0;	0,0
427,14019775390625;	2054,25;	0,0;	0,0
427,1917419433594;	3951,75;	0,0;	0,0
427,2433166503906;	4112,75;	0,0;	0,0
427,29486083984375;	699,75;	0,0;	0,0
427,34637451171875;	381,75;	0,0;	0,0
427,3979187011719;	331,0;	0,0;	0,0
427,4494323730469;	364,25;	0,0;	0,0
427,50091552734375;	460,25;	0,0;	0,0
427,55242919921875;	433,75;	0,0;	0,0
427,6039123535156;	305,25;	0,0;	0,0
427,6553955078125;	300,5;	0,0;	0,0
427,70684814453125;	313,0;	0,0;	0,0
427,75830078125;	278,0;	0,0;	0,0
427,80975341796875;	278,75;	0,0;	0,0
427,8612060546875;	320,0;	0,0;	0,0
427,91259765625;	285,25;	0,0;	0,0
427,9639587402344;	266,0;	0,0;	0,0
428,0154113769531;	268,0;	0,0;	0,0
428,0667724609375;	291,75;	0,0;	0,0
428,1181335449219;	305,0;	0,0;	0,0
428,1695251464844;	352,5;	0,0;	0,0
428,22088623046875;	490,5;	0,0;	0,0
428,272216796875;	997,0;	0,0;	0,0
428,32354736328125;	1045,75;	0,0;	0,0
428,3748779296875;	598,5;	0,0;	0,0
428,42620849609375;	285,25;	0,0;	0,0
428,4775390625;	310,75;	0,0;	0,0
428,5288391113281;	322,0;	0,0;	0,0
428,5801086425781;	364,25;	0,0;	0,0
428,6313781738281;	448,25;	0,0;	0,0
428,6826477050781;	389,0;	0,0;	0,0
428,7339172363281;	333,75;	0,0;	0,0
428,78515625;	460,0;	0,0;	0,0
428,83636474609375;	359,0;	0,0;	0,0
428,8875732421875;	408,5;	0,0;	0,0
428,93878173828125;	622,5;	0,0;	0,0
428,989990234375;	795,75;	0,0;	0,0
429,04119873046875;	512,5;	0,0;	0,0
429,0923767089844;	440,0;	0,0;	0,0
429,1435241699219;	491,75;	0,0;	0,0
429,1947021484375;	347,25;	0,0;	0,0
429,2458190917969;	300,75;	0,0;	0,0
429,29693603515625;	317,25;	0,0;	0,0
429,34808349609375;	368,5;	0,0;	0,0
429,3992004394531;	597,75;	0,0;	0,0
429,4503173828125;	1303,5;	0,0;	0,0
429,50140380859375;	780,75;	0,0;	0,0
429,552490234375;	331,5;	0,0;	0,0
429,60357666015625;	409,75;	0,0;	0,0
429,6546325683594;	371,25;	0,0;	0,0
429,7056884765625;	279,75;	0,0;	0,0
429,7567138671875;	289,25;	0,0;	0,0
429,8077697753906;	368,75;	0,0;	0,0
429,8587951660156;	563,25;	0,0;	0,0
429,9097900390625;	1015,5;	0,0;	0,0
429,9608154296875;	1603,75;	0,0;	0,0
430,01177978515625;	1097,5;	0,0;	0,0
430,0627746582031;	753,25;	0,0;	0,0
430,1137390136719;	948,0;	0,0;	0,0
430,1646728515625;	853,75;	0,0;	0,0
430,2156677246094;	605,25;	0,0;	0,0
430,2666015625;	990,75;	0,0;	0,0
430,3175048828125;	1252,0;	0,0;	0,0
430,3684387207031;	376,0;	0,0;	0,0
430,4193115234375;	296,25;	0,0;	0,0
430,4701843261719;	324,0;	0,0;	0,0
430,5210876464844;	378,75;	0,0;	0,0
430,57196044921875;	528,0;	0,0;	0,0
430,6228332519531;	1030,5;	0,0;	0,0
430,6736755371094;	843,5;	0,0;	0,0
430,7245178222656;	819,5;	0,0;	0,0
430,77532958984375;	1770,25;	0,0;	0,0
430,826171875;	4694,5;	0,0;	0,0
430,8769836425781;	2341,25;	0,0;	0,0
430,92779541015625;	472,25;	0,0;	0,0
430,97857666015625;	448,25;	0,0;	0,0
431,0293273925781;	359,0;	0,0;	0,0
431,0801086425781;	290,75;	0,0;	0,0
431,1308898925781;	285,0;	0,0;	0,0
431,1816101074219;	286,0;	0,0;	0,0
431,23236083984375;	273,0;	0,0;	0,0
431,2830810546875;	295,5;	0,0;	0,0
431,33380126953125;	310,75;	0,0;	0,0
431,3844909667969;	288,0;	0,0;	0,0
431,4352111816406;	362,0;	0,0;	0,0
431,4858703613281;	470,5;	0,0;	0,0
431,53656005859375;	875,25;	0,0;	0,0
431,5871887207031;	556,75;	0,0;	0,0
431,63787841796875;	294,0;	0,0;	0,0
431,6885070800781;	273,5;	0,0;	0,0
431,7391052246094;	302,25;	0,0;	0,0
431,78973388671875;	323,5;	0,0;	0,0
431,84033203125;	403,25;	0,0;	0,0
431,8909606933594;	650,0;	0,0;	0,0
431,9415283203125;	524,75;	0,0;	0,0
431,99212646484375;	274,0;	0,0;	0,0
432,0426940917969;	264,75;	0,0;	0,0
432,0932312011719;	277,0;	0,0;	0,0
432,1437683105469;	307,5;	0,0;	0,0
432,1943054199219;	319,25;	0,0;	0,0
432,2448425292969;	319,5;	0,0;	0,0
432,29534912109375;	281,75;	0,0;	0,0
432,3458557128906;	302,0;	0,0;	0,0
432,3963623046875;	327,25;	0,0;	0,0
432,44683837890625;	370,0;	0,0;	0,0
432,497314453125;	657,75;	0,0;	0,0
432,5477600097656;	1390,25;	0,0;	0,0
432,59820556640625;	3927,5;	0,0;	0,0
432,6486511230469;	3528,5;	0,0;	0,0
432,6990966796875;	576,0;	0,0;	0,0
432,74951171875;	409,25;	0,0;	0,0
432,7999267578125;	314,0;	0,0;	0,0
432,8503112792969;	296,25;	0,0;	0,0
432,9006652832031;	294,25;	0,0;	0,0
432,9510498046875;	270,0;	0,0;	0,0
433,00140380859375;	289,5;	0,0;	0,0
433,0517883300781;	283,5;	0,0;	0,0
433,10211181640625;	262,5;	0,0;	0,0
433,1524658203125;	273,0;	0,0;	0,0
433,2027587890625;	272,0;	0,0;	0,0
433,2530822753906;	253,25;	0,0;	0,0
433,30340576171875;	259,25;	0,0;	0,0
433,3536682128906;	243,25;	0,0;	0,0
433,4039611816406;	236,5;	0,0;	0,0
433,4542541503906;	257,5;	0,0;	0,0
433,5044860839844;	255,0;	0,0;	0,0
433,55474853515625;	258,0;	0,0;	0,0
433,60498046875;	294,0;	0,0;	0,0
433,6551818847656;	306,75;	0,0;	0,0
433,7054138183594;	396,25;	0,0;	0,0
433,755615234375;	580,5;	0,0;	0,0
433,8058166503906;	354,5;	0,0;	0,0
433,8559875488281;	309,0;	0,0;	0,0
433,9061584472656;	265,25;	0,0;	0,0
433,9563293457031;	247,5;	0,0;	0,0
434,0064697265625;	272,75;	0,0;	0,0
434,056640625;	244,75;	0,0;	0,0
434,10675048828125;	256,0;	0,0;	0,0
434,1568603515625;	255,0;	0,0;	0,0
434,20697021484375;	246,25;	0,0;	0,0
434,2570495605469;	269,25;	0,0;	0,0
434,3071594238281;	278,25;	0,0;	0,0
434,35723876953125;	272,0;	0,0;	0,0
434,40728759765625;	295,5;	0,0;	0,0
434,4573669433594;	274,5;	0,0;	0,0
434,50738525390625;	289,0;	0,0;	0,0
434,55743408203125;	271,0;	0,0;	0,0
434,6074523925781;	241,5;	0,0;	0,0
434,657470703125;	282,25;	0,0;	0,0
434,70745849609375;	293,25;	0,0;	0,0
434,7574768066406;	269,0;	0,0;	0,0
434,8074645996094;	277,5;	0,0;	0,0
434,857421875;	277,25;	0,0;	0,0
434,90740966796875;	260,5;	0,0;	0,0
434,95733642578125;	256,5;	0,0;	0,0
435,00726318359375;	264,0;	0,0;	0,0
435,05718994140625;	269,75;	0,0;	0,0
435,1071472167969;	292,0;	0,0;	0,0
435,1570129394531;	294,25;	0,0;	0,0
435,2069396972656;	356,25;	0,0;	0,0
435,25677490234375;	351,0;	0,0;	0,0
435,3066711425781;	480,25;	0,0;	0,0
435,35650634765625;	357,5;	0,0;	0,0
435,4063720703125;	253,5;	0,0;	0,0
435,4562072753906;	259,5;	0,0;	0,0
435,50604248046875;	291,0;	0,0;	0,0
435,5558776855469;	277,0;	0,0;	0,0
435,60565185546875;	280,75;	0,0;	0,0
435,65545654296875;	271,25;	0,0;	0,0
435,70526123046875;	260,75;	0,0;	0,0
435,75506591796875;	252,5;	0,0;	0,0
435,8048095703125;	274,5;	0,0;	0,0
435,85455322265625;	305,25;	0,0;	0,0
435,9043273925781;	270,0;	0,0;	0,0
435,95404052734375;	248,75;	0,0;	0,0
436,0037841796875;	268,25;	0,0;	0,0
436,053466796875;	268,75;	0,0;	0,0
436,1031799316406;	272,5;	0,0;	0,0
436,1528625488281;	247,5;	0,0;	0,0
436,20257568359375;	263,25;	0,0;	0,0
436,2522277832031;	256,5;	0,0;	0,0
436,3019104003906;	253,25;	0,0;	0,0
436,3515625;	237,75;	0,0;	0,0
436,4011535644531;	250,75;	0,0;	0,0
436,4508056640625;	267,0;	0,0;	0,0
436,50042724609375;	253,25;	0,0;	0,0
436,5500183105469;	269,0;	0,0;	0,0
436,599609375;	261,25;	0,0;	0,0
436,6492004394531;	279,25;	0,0;	0,0
436,6987609863281;	259,5;	0,0;	0,0
436,7483215332031;	293,5;	0,0;	0,0
436,7978820800781;	362,0;	0,0;	0,0
436,847412109375;	321,5;	0,0;	0,0
436,8969421386719;	287,0;	0,0;	0,0
436,94647216796875;	300,25;	0,0;	0,0
436,9959716796875;	398,25;	0,0;	0,0
437,0455017089844;	359,5;	0,0;	0,0
437,094970703125;	252,75;	0,0;	0,0
437,1444396972656;	268,0;	0,0;	0,0
437,19390869140625;	269,5;	0,0;	0,0
437,2433776855469;	252,0;	0,0;	0,0
437,2928161621094;	280,25;	0,0;	0,0
437,3422546386719;	255,75;	0,0;	0,0
437,3916931152344;	268,0;	0,0;	0,0
437,4410705566406;	275,25;	0,0;	0,0
437,4905090332031;	294,5;	0,0;	0,0
437,53985595703125;	311,5;	0,0;	0,0
437,5892639160156;	414,25;	0,0;	0,0
437,63861083984375;	565,0;	0,0;	0,0
437,6879577636719;	309,5;	0,0;	0,0
437,7373046875;	248,75;	0,0;	0,0
437,7866516113281;	272,25;	0,0;	0,0
437,8359680175781;	274,0;	0,0;	0,0
437,8852844238281;	260,5;	0,0;	0,0
437,9346008300781;	267,75;	0,0;	0,0
437,98388671875;	279,25;	0,0;	0,0
438,0331726074219;	285,5;	0,0;	0,0
438,0824279785156;	282,0;	0,0;	0,0
438,1317138671875;	299,25;	0,0;	0,0
438,1809387207031;	350,25;	0,0;	0,0
438,2301940917969;	513,5;	0,0;	0,0
438,2794189453125;	942,75;	0,0;	0,0
438,3286437988281;	2169,0;	0,0;	0,0
438,37786865234375;	5656,5;	0,0;	0,0
438,42706298828125;	3854,5;	0,0;	0,0
438,4762268066406;	619,75;	0,0;	0,0
438,525390625;	396,75;	0,0;	0,0
438,5745849609375;	301,5;	0,0;	0,0
438,62371826171875;	300,25;	0,0;	0,0
438,6728210449219;	305,75;	0,0;	0,0
438,7220153808594;	288,25;	0,0;	0,0
438,7710876464844;	305,75;	0,0;	0,0
438,8202209472656;	347,25;	0,0;	0,0
438,8692932128906;	378,5;	0,0;	0,0
438,91839599609375;	330,25;	0,0;	0,0
438,96746826171875;	280,5;	0,0;	0,0
439,01654052734375;	296,25;	0,0;	0,0
439,0655822753906;	278,5;	0,0;	0,0
439,1146240234375;	297,75;	0,0;	0,0
439,1636962890625;	289,0;	0,0;	0,0
439,21270751953125;	263,75;	0,0;	0,0
439,26171875;	284,0;	0,0;	0,0
439,3106994628906;	272,25;	0,0;	0,0
439,3597106933594;	291,25;	0,0;	0,0
439,4086608886719;	318,5;	0,0;	0,0
439,4576416015625;	310,75;	0,0;	0,0
439,506591796875;	348,5;	0,0;	0,0
439,5555419921875;	378,0;	0,0;	0,0
439,6044921875;	303,5;	0,0;	0,0
439,6534118652344;	266,75;	0,0;	0,0
439,70233154296875;	270,25;	0,0;	0,0
439,7512512207031;	256,75;	0,0;	0,0
439,8001403808594;	235,0;	0,0;	0,0
439,8489990234375;	257,25;	0,0;	0,0
439,8978576660156;	256,25;	0,0;	0,0
439,94677734375;	279,0;	0,0;	0,0
439,9955749511719;	268,25;	0,0;	0,0
440,0444030761719;	288,0;	0,0;	0,0
440,0932312011719;	273,0;	0,0;	0,0
440,1420593261719;	296,0;	0,0;	0,0
440,19085693359375;	317,5;	0,0;	0,0
440,2396545410156;	294,5;	0,0;	0,0
440,2884521484375;	306,5;	0,0;	0,0
440,3372497558594;	383,0;	0,0;	0,0
440,385986328125;	600,5;	0,0;	0,0
440,4347229003906;	1179,25;	0,0;	0,0
440,48345947265625;	3077,25;	0,0;	0,0
440,5322265625;	3391,25;	0,0;	0,0
440,5809326171875;	583,0;	0,0;	0,0
440,629638671875;	316,25;	0,0;	0,0
440,6783447265625;	304,5;	0,0;	0,0
440,7270202636719;	308,5;	0,0;	0,0
440,77569580078125;	322,5;	0,0;	0,0
440,8243713378906;	339,5;	0,0;	0,0
440,8730163574219;	346,0;	0,0;	0,0
440,9216613769531;	313,75;	0,0;	0,0
440,9703063964844;	264,25;	0,0;	0,0
441,0188903808594;	262,75;	0,0;	0,0
441,0675354003906;	268,75;	0,0;	0,0
441,1160888671875;	272,5;	0,0;	0,0
441,1647033691406;	248,75;	0,0;	0,0
441,2132568359375;	257,5;	0,0;	0,0
441,2618408203125;	280,25;	0,0;	0,0
441,3103942871094;	273,25;	0,0;	0,0
441,35894775390625;	282,25;	0,0;	0,0
441,4075012207031;	358,25;	0,0;	0,0
441,45599365234375;	619,75;	0,0;	0,0
441,5044860839844;	1209,0;	0,0;	0,0
441,5530090332031;	2278,5;	0,0;	0,0
441,60150146484375;	680,0;	0,0;	0,0
441,64996337890625;	318,5;	0,0;	0,0
441,6984558105469;	266,75;	0,0;	0,0
441,7469177246094;	309,0;	0,0;	0,0
441,79534912109375;	296,25;	0,0;	0,0
441,8437805175781;	279,0;	0,0;	0,0
441,8922119140625;	274,75;	0,0;	0,0
441,9406433105469;	249,25;	0,0;	0,0
441,9890441894531;	269,5;	0,0;	0,0
442,03741455078125;	257,0;	0,0;	0,0
442,0858154296875;	267,0;	0,0;	0,0
442,1341552734375;	254,75;	0,0;	0,0
442,18255615234375;	286,0;	0,0;	0,0
442,2308654785156;	315,75;	0,0;	0,0
442,2792053222656;	358,5;	0,0;	0,0
442,3275146484375;	328,0;	0,0;	0,0
442,3758544921875;	287,25;	0,0;	0,0
442,4241638183594;	284,0;	0,0;	0,0
442,4724426269531;	329,75;	0,0;	0,0
442,520751953125;	389,25;	0,0;	0,0
442,5690002441406;	518,5;	0,0;	0,0
442,6172790527344;	435,0;	0,0;	0,0
442,66552734375;	365,0;	0,0;	0,0
442,7137756347656;	499,25;	0,0;	0,0
442,7619934082031;	669,5;	0,0;	0,0
442,8102111816406;	387,75;	0,0;	0,0
442,8583984375;	258,0;	0,0;	0,0
442,9066162109375;	247,0;	0,0;	0,0
442,9548034667969;	277,0;	0,0;	0,0
443,0029602050781;	282,75;	0,0;	0,0
443,0511169433594;	337,25;	0,0;	0,0
443,0992736816406;	401,0;	0,0;	0,0
443,1474304199219;	310,5;	0,0;	0,0
443,195556640625;	276,5;	0,0;	0,0
443,2436828613281;	298,75;	0,0;	0,0
443,2917785644531;	297,0;	0,0;	0,0
443,33984375;	347,5;	0,0;	0,0
443,3879699707031;	366,75;	0,0;	0,0
443,4360046386719;	476,25;	0,0;	0,0
443,48406982421875;	616,25;	0,0;	0,0
443,5321350097656;	896,0;	0,0;	0,0
443,5802001953125;	584,75;	0,0;	0,0
443,6282043457031;	418,25;	0,0;	0,0
443,6762390136719;	301,0;	0,0;	0,0
443,7242431640625;	257,5;	0,0;	0,0
443,7722473144531;	273,0;	0,0;	0,0
443,8202209472656;	269,25;	0,0;	0,0
443,86822509765625;	243,0;	0,0;	0,0
443,9161682128906;	279,5;	0,0;	0,0
443,964111328125;	273,25;	0,0;	0,0
444,0120544433594;	277,0;	0,0;	0,0
444,05999755859375;	283,0;	0,0;	0,0
444,10791015625;	281,5;	0,0;	0,0
444,15582275390625;	299,75;	0,0;	0,0
444,2037353515625;	337,5;	0,0;	0,0
444,2516174316406;	515,0;	0,0;	0,0
444,29949951171875;	474,0;	0,0;	0,0
444,34735107421875;	444,25;	0,0;	0,0
444,3952331542969;	403,75;	0,0;	0,0
444,4430236816406;	328,75;	0,0;	0,0
444,49090576171875;	253,5;	0,0;	0,0
444,5386962890625;	255,0;	0,0;	0,0
444,58648681640625;	260,0;	0,0;	0,0
444,6343078613281;	254,25;	0,0;	0,0
444,6820983886719;	285,75;	0,0;	0,0
444,7298583984375;	319,75;	0,0;	0,0
444,77764892578125;	405,5;	0,0;	0,0
444,82537841796875;	459,5;	0,0;	0,0
444,8731384277344;	303,5;	0,0;	0,0
444,9208679199219;	361,25;	0,0;	0,0
444,9685974121094;	402,25;	0,0;	0,0
445,0163269042969;	312,75;	0,0;	0,0
445,0639953613281;	322,75;	0,0;	0,0
445,1117248535156;	385,25;	0,0;	0,0
445,1593933105469;	354,0;	0,0;	0,0
445,2070617675781;	289,0;	0,0;	0,0
445,25469970703125;	289,25;	0,0;	0,0
445,3023376464844;	343,25;	0,0;	0,0
445,3499755859375;	493,0;	0,0;	0,0
445,3976135253906;	574,0;	0,0;	0,0
445,4452209472656;	754,0;	0,0;	0,0
445,4928283691406;	1231,0;	0,0;	0,0
445,5404357910156;	1025,0;	0,0;	0,0
445,5880126953125;	608,0;	0,0;	0,0
445,63555908203125;	499,0;	0,0;	0,0
445,6831359863281;	378,0;	0,0;	0,0
445,73065185546875;	395,0;	0,0;	0,0
445,7781982421875;	528,0;	0,0;	0,0
445,8257141113281;	395,0;	0,0;	0,0
445,87322998046875;	363,5;	0,0;	0,0
445,92071533203125;	464,5;	0,0;	0,0
445,9682312011719;	475,0;	0,0;	0,0
446,01568603515625;	272,0;	0,0;	0,0
446,06317138671875;	284,5;	0,0;	0,0
446,1106262207031;	311,25;	0,0;	0,0
446,1580810546875;	378,75;	0,0;	0,0
446,2055358886719;	455,0;	0,0;	0,0
446,2529602050781;	322,0;	0,0;	0,0
446,30035400390625;	273,75;	0,0;	0,0
446,3477478027344;	276,5;	0,0;	0,0
446,3951416015625;	282,75;	0,0;	0,0
446,4425354003906;	276,5;	0,0;	0,0
446,4898986816406;	285,5;	0,0;	0,0
446,5372619628906;	272,75;	0,0;	0,0
446,5846252441406;	335,75;	0,0;	0,0
446,6319580078125;	417,75;	0,0;	0,0
446,6792907714844;	633,75;	0,0;	0,0
446,7265625;	402,75;	0,0;	0,0
446,7738952636719;	288,75;	0,0;	0,0
446,8211669921875;	308,75;	0,0;	0,0
446,8684387207031;	376,75;	0,0;	0,0
446,91571044921875;	340,25;	0,0;	0,0
446,9629821777344;	360,25;	0,0;	0,0
447,0102233886719;	316,75;	0,0;	0,0
447,05743408203125;	277,25;	0,0;	0,0
447,10467529296875;	264,75;	0,0;	0,0
447,1518859863281;	313,5;	0,0;	0,0
447,1990966796875;	271,0;	0,0;	0,0
447,2463073730469;	264,25;	0,0;	0,0
447,2934875488281;	268,5;	0,0;	0,0
447,34063720703125;	260,75;	0,0;	0,0
447,3878173828125;	255,25;	0,0;	0,0
447,4349365234375;	277,0;	0,0;	0,0
447,4820861816406;	298,5;	0,0;	0,0
447,5292053222656;	332,75;	0,0;	0,0
447,5763244628906;	362,75;	0,0;	0,0
447,6234436035156;	538,5;	0,0;	0,0
447,6705322265625;	391,5;	0,0;	0,0
447,7176208496094;	282,75;	0,0;	0,0
447,7646789550781;	267,75;	0,0;	0,0
447,81170654296875;	249,75;	0,0;	0,0
447,8587951660156;	257,75;	0,0;	0,0
447,9057922363281;	244,75;	0,0;	0,0
447,95281982421875;	284,25;	0,0;	0,0
447,9998474121094;	310,25;	0,0;	0,0
448,0468444824219;	300,75;	0,0;	0,0
448,0938415527344;	312,75;	0,0;	0,0
448,1408386230469;	374,25;	0,0;	0,0
448,18780517578125;	425,5;	0,0;	0,0
448,2347412109375;	486,5;	0,0;	0,0
448,28167724609375;	426,25;	0,0;	0,0
448,3286437988281;	292,75;	0,0;	0,0
448,3755798339844;	257,0;	0,0;	0,0
448,4224853515625;	308,75;	0,0;	0,0
448,4693908691406;	318,25;	0,0;	0,0
448,51629638671875;	277,5;	0,0;	0,0
448,56317138671875;	280,25;	0,0;	0,0
448,61004638671875;	274,0;	0,0;	0,0
448,6568908691406;	261,75;	0,0;	0,0
448,7037353515625;	250,5;	0,0;	0,0
448,7505798339844;	236,75;	0,0;	0,0
448,79742431640625;	259,5;	0,0;	0,0
448,8442077636719;	288,5;	0,0;	0,0
448,8910217285156;	277,75;	0,0;	0,0
448,9378356933594;	318,75;	0,0;	0,0
448,98455810546875;	294,25;	0,0;	0,0
449,0313415527344;	313,25;	0,0;	0,0
449,0780944824219;	278,75;	0,0;	0,0
449,1248474121094;	248,25;	0,0;	0,0
449,1716003417969;	265,75;	0,0;	0,0
449,21832275390625;	252,5;	0,0;	0,0
449,2650146484375;	262,5;	0,0;	0,0
449,31170654296875;	279,75;	0,0;	0,0
449,3583984375;	294,5;	0,0;	0,0
449,40509033203125;	342,25;	0,0;	0,0
449,4517517089844;	461,25;	0,0;	0,0
449,4984130859375;	573,25;	0,0;	0,0
449,5450744628906;	306,25;	0,0;	0,0
449,5917053222656;	296,25;	0,0;	0,0
449,6383361816406;	313,5;	0,0;	0,0
449,6849670410156;	275,5;	0,0;	0,0
449,7315673828125;	269,0;	0,0;	0,0
449,77813720703125;	262,0;	0,0;	0,0
449,8247375488281;	232,5;	0,0;	0,0
449,8713073730469;	263,75;	0,0;	0,0
449,9178466796875;	257,75;	0,0;	0,0
449,96441650390625;	245,5;	0,0;	0,0
450,0109558105469;	254,0;	0,0;	0,0
450,05743408203125;	276,25;	0,0;	0,0
450,1039733886719;	286,75;	0,0;	0,0
450,15045166015625;	297,75;	0,0;	0,0
450,1969299316406;	279,25;	0,0;	0,0
450,243408203125;	274,5;	0,0;	0,0
450,2899169921875;	261,0;	0,0;	0,0
450,33636474609375;	236,75;	0,0;	0,0
450,3828125;	259,75;	0,0;	0,0
450,4292297363281;	267,0;	0,0;	0,0
450,4756774902344;	245,25;	0,0;	0,0
450,5220947265625;	255,0;	0,0;	0,0
450,5684509277344;	254,75;	0,0;	0,0
450,6148376464844;	255,75;	0,0;	0,0
450,6612243652344;	238,0;	0,0;	0,0
450,7076110839844;	249,0;	0,0;	0,0
450,75396728515625;	253,5;	0,0;	0,0
450,8003234863281;	242,25;	0,0;	0,0
450,84661865234375;	237,75;	0,0;	0,0
450,8929748535156;	241,0;	0,0;	0,0
450,93927001953125;	261,0;	0,0;	0,0
450,985595703125;	251,75;	0,0;	0,0
451,0318603515625;	260,0;	0,0;	0,0
451,078125;	248,25;	0,0;	0,0
451,1243896484375;	251,5;	0,0;	0,0
451,1706848144531;	270,0;	0,0;	0,0
451,2168884277344;	271,75;	0,0;	0,0
451,26312255859375;	323,5;	0,0;	0,0
451,309326171875;	401,0;	0,0;	0,0
451,35552978515625;	275,25;	0,0;	0,0
451,4017333984375;	246,5;	0,0;	0,0
451,44793701171875;	295,75;	0,0;	0,0
451,4941101074219;	249,25;	0,0;	0,0
451,540283203125;	268,0;	0,0;	0,0
451,58642578125;	260,0;	0,0;	0,0
451,632568359375;	248,25;	0,0;	0,0
451,6787109375;	260,75;	0,0;	0,0
451,7248229980469;	292,0;	0,0;	0,0
451,77093505859375;	321,5;	0,0;	0,0
451,8170166015625;	402,5;	0,0;	0,0
451,8631286621094;	366,0;	0,0;	0,0
451,9092102050781;	255,25;	0,0;	0,0
451,95526123046875;	240,5;	0,0;	0,0
452,0013427734375;	244,75;	0,0;	0,0
452,04736328125;	248,75;	0,0;	0,0
452,0933837890625;	249,5;	0,0;	0,0
452,139404296875;	262,5;	0,0;	0,0
452,1854248046875;	275,75;	0,0;	0,0
452,2314147949219;	298,25;	0,0;	0,0
452,2773742675781;	384,75;	0,0;	0,0
452,3233642578125;	414,75;	0,0;	0,0
452,36932373046875;	293,25;	0,0;	0,0
452,4152526855469;	264,75;	0,0;	0,0
452,4612121582031;	275,0;	0,0;	0,0
452,5071105957031;	345,75;	0,0;	0,0
452,55303955078125;	334,25;	0,0;	0,0
452,5989685058594;	293,0;	0,0;	0,0
452,64483642578125;	305,75;	0,0;	0,0
452,6907653808594;	345,0;	0,0;	0,0
452,7366027832031;	429,75;	0,0;	0,0
452,7825012207031;	515,0;	0,0;	0,0
452,8283386230469;	490,5;	0,0;	0,0
452,8741455078125;	764,75;	0,0;	0,0
452,9200134277344;	594,0;	0,0;	0,0
452,9658203125;	277,75;	0,0;	0,0
453,0116271972656;	300,0;	0,0;	0,0
453,0574035644531;	283,25;	0,0;	0,0
453,10321044921875;	341,75;	0,0;	0,0
453,1489562988281;	354,5;	0,0;	0,0
453,1947326660156;	342,75;	0,0;	0,0
453,240478515625;	381,0;	0,0;	0,0
453,2862243652344;	524,5;	0,0;	0,0
453,3319091796875;	875,75;	0,0;	0,0
453,3776550292969;	822,75;	0,0;	0,0
453,42333984375;	577,75;	0,0;	0,0
453,4690246582031;	693,0;	0,0;	0,0
453,51470947265625;	907,25;	0,0;	0,0
453,56036376953125;	779,25;	0,0;	0,0
453,6060485839844;	940,75;	0,0;	0,0
453,65167236328125;	585,75;	0,0;	0,0
453,69732666015625;	269,5;	0,0;	0,0
453,7429504394531;	270,0;	0,0;	0,0
453,7885437011719;	253,0;	0,0;	0,0
453,8341369628906;	252,25;	0,0;	0,0
453,8797302246094;	263,75;	0,0;	0,0
453,92535400390625;	266,75;	0,0;	0,0
453,9709167480469;	256,5;	0,0;	0,0
454,0164794921875;	241,0;	0,0;	0,0
454,0619812011719;	251,5;	0,0;	0,0
454,1075134277344;	255,75;	0,0;	0,0
454,1530456542969;	244,25;	0,0;	0,0
454,1985778808594;	242,25;	0,0;	0,0
454,24407958984375;	262,0;	0,0;	0,0
454,28955078125;	258,75;	0,0;	0,0
454,3350524902344;	253,75;	0,0;	0,0
454,3804931640625;	270,0;	0,0;	0,0
454,42596435546875;	301,5;	0,0;	0,0
454,4713439941406;	339,0;	0,0;	0,0
454,516845703125;	319,25;	0,0;	0,0
454,5622253417969;	255,25;	0,0;	0,0
454,6076354980469;	226,0;	0,0;	0,0
454,6530456542969;	263,25;	0,0;	0,0
454,69842529296875;	270,0;	0,0;	0,0
454,7438049316406;	289,0;	0,0;	0,0
454,7891540527344;	335,0;	0,0;	0,0
454,8345031738281;	362,0;	0,0;	0,0
454,8798522949219;	404,0;	0,0;	0,0
454,9252014160156;	394,0;	0,0;	0,0
454,97052001953125;	377,0;	0,0;	0,0
455,01580810546875;	345,0;	0,0;	0,0
455,06109619140625;	280,5;	0,0;	0,0
455,10638427734375;	289,5;	0,0;	0,0
455,1516418457031;	300,5;	0,0;	0,0
455,1969299316406;	302,0;	0,0;	0,0
455,2421569824219;	405,0;	0,0;	0,0
455,28741455078125;	434,25;	0,0;	0,0
455,3326416015625;	364,25;	0,0;	0,0
455,37786865234375;	411,75;	0,0;	0,0
455,4230651855469;	578,5;	0,0;	0,0
455,46826171875;	383,0;	0,0;	0,0
455,5133972167969;	284,5;	0,0;	0,0
455,55859375;	389,0;	0,0;	0,0
455,603759765625;	378,75;	0,0;	0,0
455,6488952636719;	332,75;	0,0;	0,0
455,69403076171875;	254,5;	0,0;	0,0
455,7391357421875;	280,75;	0,0;	0,0
455,7842712402344;	249,5;	0,0;	0,0
455,8293762207031;	245,75;	0,0;	0,0
455,8744812011719;	258,75;	0,0;	0,0
455,9195251464844;	261,75;	0,0;	0,0
455,964599609375;	250,75;	0,0;	0,0
456,0096740722656;	265,75;	0,0;	0,0
456,0547180175781;	267,25;	0,0;	0,0
456,0997619628906;	240,25;	0,0;	0,0
456,144775390625;	249,25;	0,0;	0,0
456,18975830078125;	247,25;	0,0;	0,0
456,23480224609375;	234,25;	0,0;	0,0
456,27978515625;	242,0;	0,0;	0,0
456,3247375488281;	282,5;	0,0;	0,0
456,3697204589844;	287,0;	0,0;	0,0
456,4146728515625;	295,0;	0,0;	0,0
456,4595947265625;	228,5;	0,0;	0,0
456,5045471191406;	251,5;	0,0;	0,0
456,5494384765625;	242,25;	0,0;	0,0
456,5943908691406;	267,0;	0,0;	0,0
456,6392517089844;	242,5;	0,0;	0,0
456,6841125488281;	268,25;	0,0;	0,0
456,72900390625;	244,75;	0,0;	0,0
456,77386474609375;	243,5;	0,0;	0,0
456,8186950683594;	227,5;	0,0;	0,0
456,8635559082031;	239,75;	0,0;	0,0
456,90838623046875;	263,5;	0,0;	0,0
456,9532165527344;	245,75;	0,0;	0,0
456,9980163574219;	264,75;	0,0;	0,0
457,04278564453125;	243,25;	0,0;	0,0
457,08758544921875;	252,25;	0,0;	0,0
457,13238525390625;	273,25;	0,0;	0,0
457,1771240234375;	303,75;	0,0;	0,0
457,2218933105469;	356,75;	0,0;	0,0
457,2666320800781;	282,5;	0,0;	0,0
457,31134033203125;	243,0;	0,0;	0,0
457,3560485839844;	249,5;	0,0;	0,0
457,4007568359375;	230,75;	0,0;	0,0
457,4454345703125;	248,75;	0,0;	0,0
457,4901428222656;	255,25;	0,0;	0,0
457,5347900390625;	250,5;	0,0;	0,0
457,5794677734375;	242,25;	0,0;	0,0
457,62408447265625;	249,75;	0,0;	0,0
457,668701171875;	255,75;	0,0;	0,0
457,7133483886719;	271,0;	0,0;	0,0
457,7579345703125;	233,75;	0,0;	0,0
457,80255126953125;	261,0;	0,0;	0,0
457,84710693359375;	238,75;	0,0;	0,0
457,8916931152344;	273,75;	0,0;	0,0
457,936279296875;	262,5;	0,0;	0,0
457,9808349609375;	252,75;	0,0;	0,0
458,025390625;	260,0;	0,0;	0,0
458,0699157714844;	276,25;	0,0;	0,0
458,1144104003906;	285,25;	0,0;	0,0
458,158935546875;	299,25;	0,0;	0,0
458,20343017578125;	293,25;	0,0;	0,0
458,2479248046875;	261,0;	0,0;	0,0
458,2923889160156;	278,0;	0,0;	0,0
458,33685302734375;	259,5;	0,0;	0,0
458,3813171386719;	285,5;	0,0;	0,0
458,4257507324219;	262,0;	0,0;	0,0
458,47015380859375;	250,0;	0,0;	0,0
458,51458740234375;	275,5;	0,0;	0,0
458,5589904785156;	295,25;	0,0;	0,0
458,60333251953125;	303,25;	0,0;	0,0
458,6477966308594;	291,5;	0,0;	0,0
458,6921081542969;	255,5;	0,0;	0,0
458,73651123046875;	273,75;	0,0;	0,0
458,78082275390625;	240,0;	0,0;	0,0
458,8251953125;	247,0;	0,0;	0,0
458,8695068359375;	253,75;	0,0;	0,0
458,9137878417969;	248,25;	0,0;	0,0
458,9580993652344;	244,75;	0,0;	0,0
459,00238037109375;	282,0;	0,0;	0,0
459,04669189453125;	248,0;	0,0;	0,0
459,0909423828125;	255,25;	0,0;	0,0
459,13519287109375;	263,5;	0,0;	0,0
459,179443359375;	252,75;	0,0;	0,0
459,22369384765625;	265,5;	0,0;	0,0
459,26788330078125;	273,5;	0,0;	0,0
459,3121032714844;	278,0;	0,0;	0,0
459,3562927246094;	254,25;	0,0;	0,0
459,4004821777344;	258,75;	0,0;	0,0
459,4446716308594;	257,25;	0,0;	0,0
459,48883056640625;	251,75;	0,0;	0,0
459,5329895019531;	259,5;	0,0;	0,0
459,5771179199219;	269,5;	0,0;	0,0
459,6212463378906;	273,75;	0,0;	0,0
459,66534423828125;	260,0;	0,0;	0,0
459,7094421386719;	248,25;	0,0;	0,0
459,7535705566406;	246,25;	0,0;	0,0
459,7976379394531;	244,25;	0,0;	0,0
459,8417053222656;	268,75;	0,0;	0,0
459,8857727050781;	256,5;	0,0;	0,0
459,9298095703125;	274,0;	0,0;	0,0
459,9738464355469;	270,0;	0,0;	0,0
460,01788330078125;	245,5;	0,0;	0,0
460,0618896484375;	268,25;	0,0;	0,0
460,1058654785156;	267,25;	0,0;	0,0
460,14990234375;	264,0;	0,0;	0,0
460,1938781738281;	258,0;	0,0;	0,0
460,2378234863281;	293,75;	0,0;	0,0
460,28179931640625;	305,0;	0,0;	0,0
460,32574462890625;	317,0;	0,0;	0,0
460,3696594238281;	249,5;	0,0;	0,0
460,41357421875;	257,5;	0,0;	0,0
460,4574890136719;	260,25;	0,0;	0,0
460,50140380859375;	235,5;	0,0;	0,0
460,5452575683594;	246,0;	0,0;	0,0
460,58917236328125;	250,75;	0,0;	0,0
460,63299560546875;	245,25;	0,0;	0,0
460,6768798828125;	255,0;	0,0;	0,0
460,7206726074219;	276,25;	0,0;	0,0
460,7645263671875;	298,5;	0,0;	0,0
460,808349609375;	273,25;	0,0;	0,0
460,8521728515625;	265,0;	0,0;	0,0
460,89593505859375;	267,5;	0,0;	0,0
460,93975830078125;	268,0;	0,0;	0,0
460,9834899902344;	261,75;	0,0;	0,0
461,0272521972656;	287,5;	0,0;	0,0
461,0710144042969;	267,5;	0,0;	0,0
461,11474609375;	267,25;	0,0;	0,0
461,158447265625;	307,5;	0,0;	0,0
461,2021789550781;	268,25;	0,0;	0,0
461,2458801269531;	243,75;	0,0;	0,0
461,28955078125;	233,75;	0,0;	0,0
461,333251953125;	262,5;	0,0;	0,0
461,3769226074219;	255,25;	0,0;	0,0
461,4205627441406;	236,5;	0,0;	0,0
461,4642028808594;	249,75;	0,0;	0,0
461,5078430175781;	250,25;	0,0;	0,0
461,55145263671875;	249,25;	0,0;	0,0
461,5950622558594;	263,0;	0,0;	0,0
461,638671875;	279,75;	0,0;	0,0
461,6822509765625;	295,25;	0,0;	0,0
461,7257995605469;	364,0;	0,0;	0,0
461,7693786621094;	361,5;	0,0;	0,0
461,81292724609375;	257,5;	0,0;	0,0
461,85650634765625;	263,75;	0,0;	0,0
461,8999938964844;	262,5;	0,0;	0,0
461,94354248046875;	295,0;	0,0;	0,0
461,9870300292969;	266,75;	0,0;	0,0
462,0304870605469;	272,25;	0,0;	0,0
462,0740051269531;	241,25;	0,0;	0,0
462,1174621582031;	255,75;	0,0;	0,0
462,1609191894531;	269,0;	0,0;	0,0
462,2043762207031;	257,25;	0,0;	0,0
462,247802734375;	268,5;	0,0;	0,0
462,2912292480469;	285,0;	0,0;	0,0
462,3346252441406;	324,25;	0,0;	0,0
462,3780517578125;	261,5;	0,0;	0,0
462,4214172363281;	256,5;	0,0;	0,0
462,4648132324219;	270,75;	0,0;	0,0
462,5081787109375;	272,0;	0,0;	0,0
462,551513671875;	281,0;	0,0;	0,0
462,5948791503906;	282,25;	0,0;	0,0
462,6382141113281;	259,75;	0,0;	0,0
462,6815185546875;	242,75;	0,0;	0,0
462,7248229980469;	250,5;	0,0;	0,0
462,76812744140625;	242,0;	0,0;	0,0
462,8113708496094;	257,0;	0,0;	0,0
462,85467529296875;	230,75;	0,0;	0,0
462,8979187011719;	272,25;	0,0;	0,0
462,9411926269531;	281,75;	0,0;	0,0
462,9844055175781;	265,0;	0,0;	0,0
463,0276184082031;	258,5;	0,0;	0,0
463,0708312988281;	248,75;	0,0;	0,0
463,1140441894531;	245,5;	0,0;	0,0
463,1572265625;	254,75;	0,0;	0,0
463,2004089355469;	248,5;	0,0;	0,0
463,24359130859375;	255,75;	0,0;	0,0
463,2867431640625;	259,75;	0,0;	0,0
463,32989501953125;	261,75;	0,0;	0,0
463,3730163574219;	263,25;	0,0;	0,0
463,4161376953125;	234,25;	0,0;	0,0
463,459228515625;	249,25;	0,0;	0,0
463,5023498535156;	266,25;	0,0;	0,0
463,5454406738281;	255,25;	0,0;	0,0
463,5885009765625;	249,0;	0,0;	0,0
463,6315612792969;	263,0;	0,0;	0,0
463,67462158203125;	261,0;	0,0;	0,0
463,7176513671875;	255,0;	0,0;	0,0
463,76068115234375;	305,0;	0,0;	0,0
463,8036804199219;	312,5;	0,0;	0,0
463,8467102050781;	317,5;	0,0;	0,0
463,8896789550781;	282,0;	0,0;	0,0
463,93267822265625;	336,0;	0,0;	0,0
463,9756164550781;	357,0;	0,0;	0,0
464,0186462402344;	313,75;	0,0;	0,0
464,0615234375;	274,25;	0,0;	0,0
464,1044921875;	254,5;	0,0;	0,0
464,14739990234375;	261,5;	0,0;	0,0
464,1903076171875;	244,5;	0,0;	0,0
464,2331848144531;	246,75;	0,0;	0,0
464,2760925292969;	264,5;	0,0;	0,0
464,3189697265625;	277,25;	0,0;	0,0
464,3618469238281;	278,25;	0,0;	0,0
464,4046936035156;	274,25;	0,0;	0,0
464,4475402832031;	259,75;	0,0;	0,0
464,4903869628906;	262,75;	0,0;	0,0
464,5331726074219;	257,5;	0,0;	0,0
464,57598876953125;	277,5;	0,0;	0,0
464,6188049316406;	260,5;	0,0;	0,0
464,66156005859375;	282,75;	0,0;	0,0
464,704345703125;	269,75;	0,0;	0,0
464,7471008300781;	280,25;	0,0;	0,0
464,78985595703125;	294,25;	0,0;	0,0
464,83258056640625;	252,75;	0,0;	0,0
464,8752746582031;	246,25;	0,0;	0,0
464,9179992675781;	250,25;	0,0;	0,0
464,9606628417969;	253,0;	0,0;	0,0
465,00341796875;	278,5;	0,0;	0,0
465,0460510253906;	260,25;	0,0;	0,0
465,0887145996094;	258,5;	0,0;	0,0
465,1313781738281;	256,0;	0,0;	0,0
465,17401123046875;	243,5;	0,0;	0,0
465,2166748046875;	257,75;	0,0;	0,0
465,2592468261719;	265,0;	0,0;	0,0
465,3018798828125;	243,25;	0,0;	0,0
465,344482421875;	278,0;	0,0;	0,0
465,3870544433594;	281,25;	0,0;	0,0
465,42962646484375;	299,25;	0,0;	0,0
465,4721984863281;	320,0;	0,0;	0,0
465,5147399902344;	285,5;	0,0;	0,0
465,5572814941406;	278,5;	0,0;	0,0
465,59979248046875;	275,5;	0,0;	0,0
465,6423034667969;	295,5;	0,0;	0,0
465,684814453125;	284,0;	0,0;	0,0
465,727294921875;	243,25;	0,0;	0,0
465,769775390625;	269,75;	0,0;	0,0
465,812255859375;	241,75;	0,0;	0,0
465,8547058105469;	247,75;	0,0;	0,0
465,89715576171875;	239,0;	0,0;	0,0
465,9395751953125;	251,0;	0,0;	0,0
465,98199462890625;	259,75;	0,0;	0,0
466,0243835449219;	244,25;	0,0;	0,0
466,0667724609375;	256,25;	0,0;	0,0
466,1091613769531;	229,0;	0,0;	0,0
466,15155029296875;	259,5;	0,0;	0,0
466,19390869140625;	245,75;	0,0;	0,0
466,2362365722656;	244,0;	0,0;	0,0
466,2785949707031;	251,0;	0,0;	0,0
466,3209228515625;	242,5;	0,0;	0,0
466,36322021484375;	234,75;	0,0;	0,0
466,4055480957031;	276,75;	0,0;	0,0
466,44781494140625;	271,0;	0,0;	0,0
466,4900817871094;	258,0;	0,0;	0,0
466,5323791503906;	272,25;	0,0;	0,0
466,5746154785156;	259,75;	0,0;	0,0
466,61688232421875;	305,25;	0,0;	0,0
466,6590881347656;	341,0;	0,0;	0,0
466,7013244628906;	334,5;	0,0;	0,0
466,7435302734375;	422,0;	0,0;	0,0
466,78570556640625;	416,25;	0,0;	0,0
466,8278503417969;	339,0;	0,0;	0,0
466,87005615234375;	298,0;	0,0;	0,0
466,9122009277344;	281,75;	0,0;	0,0
466,9543762207031;	272,5;	0,0;	0,0
466,9964904785156;	281,5;	0,0;	0,0
467,03863525390625;	279,0;	0,0;	0,0
467,08074951171875;	259,0;	0,0;	0,0
467,1228332519531;	257,25;	0,0;	0,0
467,1649169921875;	256,75;	0,0;	0,0
467,20703125;	278,25;	0,0;	0,0
467,24908447265625;	256,5;	0,0;	0,0
467,2911071777344;	244,0;	0,0;	0,0
467,33319091796875;	265,0;	0,0;	0,0
467,3752136230469;	263,25;	0,0;	0,0
467,4172058105469;	256,0;	0,0;	0,0
467,459228515625;	263,25;	0,0;	0,0
467,501220703125;	284,0;	0,0;	0,0
467,5431823730469;	274,5;	0,0;	0,0
467,5851745605469;	256,5;	0,0;	0,0
467,62713623046875;	257,5;	0,0;	0,0
467,6690979003906;	276,5;	0,0;	0,0
467,7110290527344;	272,5;	0,0;	0,0
467,7529602050781;	268,25;	0,0;	0,0
467,79486083984375;	269,75;	0,0;	0,0
467,8367614746094;	290,25;	0,0;	0,0
467,8786315917969;	302,25;	0,0;	0,0
467,9205322265625;	296,25;	0,0;	0,0
467,9623718261719;	273,0;	0,0;	0,0
468,0042419433594;	275,25;	0,0;	0,0
468,04608154296875;	298,0;	0,0;	0,0
468,087890625;	279,0;	0,0;	0,0
468,1297302246094;	291,5;	0,0;	0,0
468,1715393066406;	308,0;	0,0;	0,0
468,21331787109375;	372,0;	0,0;	0,0
468,2550964355469;	281,5;	0,0;	0,0
468,296875;	285,0;	0,0;	0,0
468,3386535644531;	248,75;	0,0;	0,0
468,38037109375;	245,5;	0,0;	0,0
468,422119140625;	239,5;	0,0;	0,0
468,4638366699219;	256,25;	0,0;	0,0
468,50555419921875;	242,0;	0,0;	0,0
468,5472412109375;	253,25;	0,0;	0,0
468,58892822265625;	252,75;	0,0;	0,0
468,630615234375;	249,75;	0,0;	0,0
468,6722717285156;	270,0;	0,0;	0,0
468,71392822265625;	268,5;	0,0;	0,0
468,75555419921875;	253,0;	0,0;	0,0
468,7972106933594;	258,75;	0,0;	0,0
468,83880615234375;	247,25;	0,0;	0,0
468,88043212890625;	244,5;	0,0;	0,0
468,9219665527344;	248,75;	0,0;	0,0
468,9635925292969;	275,5;	0,0;	0,0
469,0051574707031;	254,75;	0,0;	0,0
469,0467224121094;	274,0;	0,0;	0,0
469,0882263183594;	276,75;	0,0;	0,0
469,1297912597656;	297,75;	0,0;	0,0
469,1712951660156;	310,75;	0,0;	0,0
469,2127990722656;	259,75;	0,0;	0,0
469,2543029785156;	257,0;	0,0;	0,0
469,2958068847656;	257,75;	0,0;	0,0
469,3372802734375;	257,25;	0,0;	0,0
469,3787536621094;	266,25;	0,0;	0,0
469,4201965332031;	251,25;	0,0;	0,0
469,4616394042969;	253,0;	0,0;	0,0
469,5030517578125;	257,25;	0,0;	0,0
469,54449462890625;	248,0;	0,0;	0,0
469,58587646484375;	247,5;	0,0;	0,0
469,6272888183594;	252,5;	0,0;	0,0
469,66864013671875;	260,0;	0,0;	0,0
469,7099914550781;	260,0;	0,0;	0,0
469,7513732910156;	255,0;	0,0;	0,0
469,7926940917969;	251,25;	0,0;	0,0
469,83404541015625;	263,75;	0,0;	0,0
469,8753356933594;	303,0;	0,0;	0,0
469,91668701171875;	265,5;	0,0;	0,0
469,95794677734375;	247,0;	0,0;	0,0
469,999267578125;	253,5;	0,0;	0,0
470,0404968261719;	246,75;	0,0;	0,0
470,0817565917969;	242,0;	0,0;	0,0
470,12298583984375;	258,75;	0,0;	0,0
470,16424560546875;	264,0;	0,0;	0,0
470,2054748535156;	258,75;	0,0;	0,0
470,2467041015625;	260,25;	0,0;	0,0
470,28790283203125;	244,5;	0,0;	0,0
470,3290710449219;	247,25;	0,0;	0,0
470,3702392578125;	243,5;	0,0;	0,0
470,41143798828125;	254,75;	0,0;	0,0
470,4526062011719;	253,5;	0,0;	0,0
470,49371337890625;	262,25;	0,0;	0,0
470,53485107421875;	270,0;	0,0;	0,0
470,5759582519531;	273,75;	0,0;	0,0
470,6170959472656;	264,25;	0,0;	0,0
470,6581726074219;	280,25;	0,0;	0,0
470,6992492675781;	292,5;	0,0;	0,0
470,7403259277344;	307,0;	0,0;	0,0
470,7814025878906;	276,75;	0,0;	0,0
470,8223876953125;	277,0;	0,0;	0,0
470,86346435546875;	258,0;	0,0;	0,0
470,90447998046875;	262,25;	0,0;	0,0
470,94549560546875;	276,5;	0,0;	0,0
470,9864807128906;	311,75;	0,0;	0,0
471,0274658203125;	272,5;	0,0;	0,0
471,0684509277344;	276,0;	0,0;	0,0
471,1094055175781;	243,0;	0,0;	0,0
471,15032958984375;	233,25;	0,0;	0,0
471,1912841796875;	259,25;	0,0;	0,0
471,23223876953125;	257,25;	0,0;	0,0
471,27313232421875;	243,0;	0,0;	0,0
471,3140563964844;	261,5;	0,0;	0,0
471,35491943359375;	246,0;	0,0;	0,0
471,39581298828125;	254,0;	0,0;	0,0
471,4366455078125;	267,0;	0,0;	0,0
471,4775390625;	245,5;	0,0;	0,0
471,51837158203125;	232,75;	0,0;	0,0
471,5592041015625;	262,5;	0,0;	0,0
471,60003662109375;	252,5;	0,0;	0,0
471,6408386230469;	235,5;	0,0;	0,0
471,6816101074219;	247,25;	0,0;	0,0
471,722412109375;	242,25;	0,0;	0,0
471,7631530761719;	274,75;	0,0;	0,0
471,8039245605469;	231,25;	0,0;	0,0
471,84466552734375;	266,25;	0,0;	0,0
471,88543701171875;	257,0;	0,0;	0,0
471,9261169433594;	250,0;	0,0;	0,0
471,9668884277344;	243,25;	0,0;	0,0
472,0075378417969;	268,0;	0,0;	0,0
472,0482177734375;	249,0;	0,0;	0,0
472,0888977050781;	269,5;	0,0;	0,0
472,1295471191406;	251,5;	0,0;	0,0
472,17022705078125;	273,5;	0,0;	0,0
472,21087646484375;	270,0;	0,0;	0,0
472,25146484375;	276,5;	0,0;	0,0
472,2920837402344;	266,75;	0,0;	0,0
472,33270263671875;	257,25;	0,0;	0,0
472,373291015625;	246,25;	0,0;	0,0
472,41387939453125;	237,0;	0,0;	0,0
472,4544372558594;	266,25;	0,0;	0,0
472,4949951171875;	249,75;	0,0;	0,0
472,5355529785156;	247,5;	0,0;	0,0
472,5760803222656;	250,0;	0,0;	0,0
472,6166076660156;	245,0;	0,0;	0,0
472,6571044921875;	258,5;	0,0;	0,0
472,6976013183594;	249,75;	0,0;	0,0
472,7380676269531;	276,75;	0,0;	0,0
472,7785339355469;	273,0;	0,0;	0,0
472,81903076171875;	267,5;	0,0;	0,0
472,85943603515625;	256,75;	0,0;	0,0
472,89990234375;	262,75;	0,0;	0,0
472,9402770996094;	258,75;	0,0;	0,0
472,980712890625;	237,0;	0,0;	0,0
473,0211181640625;	244,25;	0,0;	0,0
473,0614929199219;	244,25;	0,0;	0,0
473,1018981933594;	235,25;	0,0;	0,0
473,1422424316406;	264,75;	0,0;	0,0
473,1826171875;	262,5;	0,0;	0,0
473,2229309082031;	251,5;	0,0;	0,0
473,26324462890625;	277,0;	0,0;	0,0
473,3035888671875;	279,0;	0,0;	0,0
473,3439025878906;	272,75;	0,0;	0,0
473,3841552734375;	264,25;	0,0;	0,0
473,4244689941406;	261,25;	0,0;	0,0
473,4647216796875;	259,5;	0,0;	0,0
473,5049743652344;	254,0;	0,0;	0,0
473,54522705078125;	285,75;	0,0;	0,0
473,58544921875;	304,0;	0,0;	0,0
473,62567138671875;	307,0;	0,0;	0,0
473,6658935546875;	337,25;	0,0;	0,0
473,7060546875;	334,5;	0,0;	0,0
473,7462463378906;	275,75;	0,0;	0,0
473,7864074707031;	246,0;	0,0;	0,0
473,82659912109375;	243,5;	0,0;	0,0
473,8667297363281;	247,0;	0,0;	0,0
473,9068298339844;	249,25;	0,0;	0,0
473,9469909667969;	236,25;	0,0;	0,0
473,9870910644531;	250,5;	0,0;	0,0
474,0271911621094;	244,25;	0,0;	0,0
474,0672607421875;	266,0;	0,0;	0,0
474,1073303222656;	273,0;	0,0;	0,0
474,14739990234375;	264,0;	0,0;	0,0
474,18743896484375;	256,25;	0,0;	0,0
474,22747802734375;	274,5;	0,0;	0,0
474,26751708984375;	274,5;	0,0;	0,0
474,30755615234375;	277,5;	0,0;	0,0
474,3475646972656;	256,5;	0,0;	0,0
474,3875427246094;	251,5;	0,0;	0,0
474,4275207519531;	267,25;	0,0;	0,0
474,4674987792969;	267,25;	0,0;	0,0
474,5074462890625;	270,75;	0,0;	0,0
474,5473937988281;	269,25;	0,0;	0,0
474,5873107910156;	270,25;	0,0;	0,0
474,627197265625;	254,0;	0,0;	0,0
474,6671447753906;	246,5;	0,0;	0,0
474,7070007324219;	266,75;	0,0;	0,0
474,7469177246094;	267,0;	0,0;	0,0
474,7867431640625;	263,5;	0,0;	0,0
474,82666015625;	249,0;	0,0;	0,0
474,8664855957031;	245,25;	0,0;	0,0
474,9062805175781;	241,75;	0,0;	0,0
474,9461364746094;	247,5;	0,0;	0,0
474,98590087890625;	239,25;	0,0;	0,0
475,0257263183594;	258,5;	0,0;	0,0
475,0655212402344;	261,5;	0,0;	0,0
475,1053161621094;	261,25;	0,0;	0,0
475,1450500488281;	251,25;	0,0;	0,0
475,184814453125;	257,0;	0,0;	0,0
475,22454833984375;	265,75;	0,0;	0,0
475,2642517089844;	248,75;	0,0;	0,0
475,3039855957031;	262,0;	0,0;	0,0
475,34368896484375;	258,0;	0,0;	0,0
475,38336181640625;	285,5;	0,0;	0,0
475,42303466796875;	278,75;	0,0;	0,0
475,46270751953125;	255,75;	0,0;	0,0
475,5023498535156;	241,0;	0,0;	0,0
475,5419921875;	247,0;	0,0;	0,0
475,5816345214844;	250,25;	0,0;	0,0
475,6212158203125;	261,75;	0,0;	0,0
475,6608581542969;	240,75;	0,0;	0,0
475,7004089355469;	256,0;	0,0;	0,0
475,7400207519531;	272,5;	0,0;	0,0
475,7795715332031;	310,5;	0,0;	0,0
475,8191223144531;	332,25;	0,0;	0,0
475,8586730957031;	299,75;	0,0;	0,0
475,898193359375;	300,5;	0,0;	0,0
475,9377136230469;	325,75;	0,0;	0,0
475,9772033691406;	262,75;	0,0;	0,0
476,0167236328125;	236,0;	0,0;	0,0
476,0561828613281;	250,25;	0,0;	0,0
476,0956726074219;	277,25;	0,0;	0,0
476,1351318359375;	253,25;	0,0;	0,0
476,1745910644531;	279,75;	0,0;	0,0
476,2140197753906;	269,0;	0,0;	0,0
476,2534484863281;	277,5;	0,0;	0,0
476,2928466796875;	247,0;	0,0;	0,0
476,3322448730469;	257,0;	0,0;	0,0
476,3716125488281;	271,25;	0,0;	0,0
476,4110107421875;	265,0;	0,0;	0,0
476,4503479003906;	253,25;	0,0;	0,0
476,4897155761719;	265,0;	0,0;	0,0
476,52899169921875;	266,0;	0,0;	0,0
476,5683898925781;	265,5;	0,0;	0,0
476,607666015625;	274,5;	0,0;	0,0
476,64697265625;	261,5;	0,0;	0,0
476,6862487792969;	247,5;	0,0;	0,0
476,7255554199219;	254,5;	0,0;	0,0
476,7647705078125;	245,75;	0,0;	0,0
476,8040466308594;	246,25;	0,0;	0,0
476,8432922363281;	264,75;	0,0;	0,0
476,88250732421875;	272,25;	0,0;	0,0
476,9217224121094;	246,25;	0,0;	0,0
476,9609069824219;	250,25;	0,0;	0,0
477,0001220703125;	255,5;	0,0;	0,0
477,0392761230469;	254,25;	0,0;	0,0
477,0784606933594;	254,5;	0,0;	0,0
477,1176452636719;	254,0;	0,0;	0,0
477,1567687988281;	248,0;	0,0;	0,0
477,1958923339844;	243,75;	0,0;	0,0
477,2350158691406;	270,0;	0,0;	0,0
477,27410888671875;	259,75;	0,0;	0,0
477,3132019042969;	247,5;	0,0;	0,0
477,352294921875;	237,5;	0,0;	0,0
477,3913879394531;	241,75;	0,0;	0,0
477,4303894042969;	253,0;	0,0;	0,0
477,469482421875;	263,25;	0,0;	0,0
477,50848388671875;	218,25;	0,0;	0,0
477,5475158691406;	233,75;	0,0;	0,0
477,58648681640625;	242,75;	0,0;	0,0
477,62554931640625;	247,5;	0,0;	0,0
477,66448974609375;	247,0;	0,0;	0,0
477,70343017578125;	239,5;	0,0;	0,0
477,7424011230469;	263,25;	0,0;	0,0
477,7813415527344;	259,75;	0,0;	0,0
477,8203125;	248,25;	0,0;	0,0
477,85919189453125;	240,0;	0,0;	0,0
477,89813232421875;	254,75;	0,0;	0,0
477,93701171875;	263,0;	0,0;	0,0
477,9759216308594;	253,25;	0,0;	0,0
478,0147705078125;	253,5;	0,0;	0,0
478,05364990234375;	250,5;	0,0;	0,0
478,092529296875;	257,75;	0,0;	0,0
478,13134765625;	254,0;	0,0;	0,0
478,170166015625;	269,5;	0,0;	0,0
478,2089538574219;	250,25;	0,0;	0,0
478,2477722167969;	244,75;	0,0;	0,0
478,28656005859375;	269,25;	0,0;	0,0
478,3253479003906;	275,0;	0,0;	0,0
478,3641052246094;	275,25;	0,0;	0,0
478,4028625488281;	263,0;	0,0;	0,0
478,4416198730469;	247,25;	0,0;	0,0
478,48028564453125;	228,0;	0,0;	0,0
478,51904296875;	240,0;	0,0;	0,0
478,5577392578125;	247,5;	0,0;	0,0
478,596435546875;	260,0;	0,0;	0,0
478,6351013183594;	238,0;	0,0;	0,0
478,6737365722656;	287,0;	0,0;	0,0
478,71240234375;	267,5;	0,0;	0,0
478,7510681152344;	251,75;	0,0;	0,0
478,7897033691406;	246,5;	0,0;	0,0
478,82830810546875;	261,5;	0,0;	0,0
478,8669128417969;	248,5;	0,0;	0,0
478,9054870605469;	261,25;	0,0;	0,0
478,9440612792969;	284,25;	0,0;	0,0
478,982666015625;	282,25;	0,0;	0,0
479,0212097167969;	234,75;	0,0;	0,0
479,05975341796875;	252,25;	0,0;	0,0
479,0982971191406;	250,0;	0,0;	0,0
479,1368103027344;	231,0;	0,0;	0,0
479,17529296875;	254,5;	0,0;	0,0
479,21380615234375;	240,25;	0,0;	0,0
479,2522888183594;	254,5;	0,0;	0,0
479,29071044921875;	250,5;	0,0;	0,0
479,3292236328125;	235,5;	0,0;	0,0
479,3676452636719;	235,75;	0,0;	0,0
479,4060974121094;	239,0;	0,0;	0,0
479,44451904296875;	240,75;	0,0;	0,0
479,4829406738281;	247,75;	0,0;	0,0
479,52130126953125;	231,25;	0,0;	0,0
479,5596923828125;	240,25;	0,0;	0,0
479,59808349609375;	241,0;	0,0;	0,0
479,63641357421875;	244,25;	0,0;	0,0
479,6747741699219;	259,75;	0,0;	0,0
479,7131042480469;	252,5;	0,0;	0,0
479,7514343261719;	242,0;	0,0;	0,0
479,7897644042969;	259,0;	0,0;	0,0
479,8280334472656;	258,0;	0,0;	0,0
479,8663330078125;	247,25;	0,0;	0,0
479,9045715332031;	273,75;	0,0;	0,0
479,9428405761719;	266,5;	0,0;	0,0
479,9811096191406;	275,0;	0,0;	0,0
480,01934814453125;	278,0;	0,0;	0,0
480,05755615234375;	270,5;	0,0;	0,0
480,0957946777344;	262,25;	0,0;	0,0
480,1340026855469;	247,75;	0,0;	0,0
480,17218017578125;	248,0;	0,0;	0,0
480,2103576660156;	261,5;	0,0;	0,0
480,24847412109375;	263,25;	0,0;	0,0
480,28668212890625;	243,5;	0,0;	0,0
480,3247985839844;	269,75;	0,0;	0,0
480,3629455566406;	270,5;	0,0;	0,0
480,4010314941406;	263,25;	0,0;	0,0
480,4391174316406;	253,0;	0,0;	0,0
480,4772033691406;	249,75;	0,0;	0,0
480,5152893066406;	265,25;	0,0;	0,0
480,5533447265625;	283,25;	0,0;	0,0
480,5914001464844;	257,5;	0,0;	0,0
480,62945556640625;	255,0;	0,0;	0,0
480,66748046875;	244,25;	0,0;	0,0
480,7054748535156;	233,5;	0,0;	0,0
480,7434997558594;	234,0;	0,0;	0,0
480,781494140625;	246,25;	0,0;	0,0
480,8194580078125;	245,5;	0,0;	0,0
480,857421875;	252,0;	0,0;	0,0
480,8953857421875;	241,75;	0,0;	0,0
480,9333190917969;	273,5;	0,0;	0,0
480,9712829589844;	265,0;	0,0;	0,0
481,0091552734375;	268,25;	0,0;	0,0
481,0470886230469;	249,0;	0,0;	0,0
481,0849914550781;	263,25;	0,0;	0,0
481,1228332519531;	242,25;	0,0;	0,0
481,16070556640625;	254,5;	0,0;	0,0
481,1985778808594;	258,0;	0,0;	0,0
481,2364196777344;	251,0;	0,0;	0,0
481,27423095703125;	274,0;	0,0;	0,0
481,3120422363281;	248,5;	0,0;	0,0
481,349853515625;	241,75;	0,0;	0,0
481,3876647949219;	234,5;	0,0;	0,0
481,4254150390625;	244,5;	0,0;	0,0
481,46319580078125;	234,5;	0,0;	0,0
481,5009765625;	253,75;	0,0;	0,0
481,5386962890625;	257,75;	0,0;	0,0
481,576416015625;	250,75;	0,0;	0,0
481,6141662597656;	251,75;	0,0;	0,0
481,65185546875;	225,75;	0,0;	0,0
481,6895446777344;	257,75;	0,0;	0,0
481,72723388671875;	245,25;	0,0;	0,0
481,764892578125;	254,75;	0,0;	0,0
481,8025817871094;	262,75;	0,0;	0,0
481,8402099609375;	265,25;	0,0;	0,0
481,8778381347656;	275,25;	0,0;	0,0
481,91546630859375;	257,5;	0,0;	0,0
481,95306396484375;	268,75;	0,0;	0,0
481,99066162109375;	279,25;	0,0;	0,0
482,02825927734375;	293,5;	0,0;	0,0
482,0658264160156;	269,5;	0,0;	0,0
482,1033935546875;	257,25;	0,0;	0,0
482,1408996582031;	245,25;	0,0;	0,0
482,178466796875;	262,0;	0,0;	0,0
482,2159729003906;	242,25;	0,0;	0,0
482,2534484863281;	261,75;	0,0;	0,0
482,29095458984375;	260,5;	0,0;	0,0
482,3284606933594;	308,5;	0,0;	0,0
482,36590576171875;	281,5;	0,0;	0,0
482,40338134765625;	271,5;	0,0;	0,0
482,4408264160156;	264,75;	0,0;	0,0
482,478271484375;	261,75;	0,0;	0,0
482,5157165527344;	269,75;	0,0;	0,0
482,5531005859375;	237,25;	0,0;	0,0
482,59051513671875;	264,75;	0,0;	0,0
482,6278991699219;	244,75;	0,0;	0,0
482,6652526855469;	238,75;	0,0;	0,0
482,7026062011719;	258,25;	0,0;	0,0
482,739990234375;	249,5;	0,0;	0,0
482,77728271484375;	258,25;	0,0;	0,0
482,81463623046875;	245,75;	0,0;	0,0
482,8519287109375;	252,75;	0,0;	0,0
482,8892517089844;	267,5;	0,0;	0,0
482,926513671875;	236,75;	0,0;	0,0
482,96380615234375;	261,0;	0,0;	0,0
483,00103759765625;	262,25;	0,0;	0,0
483,038330078125;	265,75;	0,0;	0,0
483,0755310058594;	226,25;	0,0;	0,0
483,1127624511719;	255,25;	0,0;	0,0
483,14996337890625;	244,0;	0,0;	0,0
483,1871643066406;	253,5;	0,0;	0,0
483,2243347167969;	256,75;	0,0;	0,0
483,26153564453125;	252,5;	0,0;	0,0
483,2986755371094;	242,5;	0,0;	0,0
483,3358154296875;	255,5;	0,0;	0,0
483,3729553222656;	272,25;	0,0;	0,0
483,41009521484375;	252,75;	0,0;	0,0
483,44720458984375;	247,75;	0,0;	0,0
483,48431396484375;	253,25;	0,0;	0,0
483,5213928222656;	233,25;	0,0;	0,0
483,5584716796875;	266,5;	0,0;	0,0
483,59552001953125;	243,25;	0,0;	0,0
483,6325988769531;	255,25;	0,0;	0,0
483,66961669921875;	262,5;	0,0;	0,0
483,7066650390625;	277,0;	0,0;	0,0
483,7436828613281;	270,75;	0,0;	0,0
483,7806396484375;	259,0;	0,0;	0,0
483,8176574707031;	273,0;	0,0;	0,0
483,8546142578125;	281,75;	0,0;	0,0
483,8916015625;	277,5;	0,0;	0,0
483,92852783203125;	264,75;	0,0;	0,0
483,9654541015625;	296,0;	0,0;	0,0
484,00238037109375;	284,0;	0,0;	0,0
484,0392761230469;	315,25;	0,0;	0,0
484,0762023925781;	319,25;	0,0;	0,0
484,1130676269531;	310,75;	0,0;	0,0
484,14996337890625;	266,5;	0,0;	0,0
484,1867980957031;	275,0;	0,0;	0,0
484,22369384765625;	267,5;	0,0;	0,0
484,260498046875;	270,5;	0,0;	0,0
484,2973327636719;	256,75;	0,0;	0,0
484,33416748046875;	276,25;	0,0;	0,0
484,3709716796875;	247,5;	0,0;	0,0
484,4077453613281;	246,75;	0,0;	0,0
484,44451904296875;	254,75;	0,0;	0,0
484,4812927246094;	257,75;	0,0;	0,0
484,5180358886719;	277,5;	0,0;	0,0
484,5547790527344;	254,25;	0,0;	0,0
484,59149169921875;	261,25;	0,0;	0,0
484,628173828125;	260,75;	0,0;	0,0
484,6649169921875;	267,75;	0,0;	0,0
484,7015686035156;	254,25;	0,0;	0,0
484,7383117675781;	255,0;	0,0;	0,0
484,77490234375;	255,0;	0,0;	0,0
484,8116149902344;	256,25;	0,0;	0,0
484,84820556640625;	265,25;	0,0;	0,0
484,8848571777344;	269,5;	0,0;	0,0
484,92144775390625;	274,0;	0,0;	0,0
484,9580383300781;	268,0;	0,0;	0,0
484,9946594238281;	273,5;	0,0;	0,0
485,03125;	243,5;	0,0;	0,0
485,06781005859375;	248,75;	0,0;	0,0
485,1043395996094;	256,0;	0,0;	0,0
485,140869140625;	261,0;	0,0;	0,0
485,1773986816406;	286,75;	0,0;	0,0
485,2138977050781;	238,75;	0,0;	0,0
485,25042724609375;	267,25;	0,0;	0,0
485,2868957519531;	245,5;	0,0;	0,0
485,3233947753906;	272,5;	0,0;	0,0
485,35986328125;	248,25;	0,0;	0,0
485,39630126953125;	308,25;	0,0;	0,0
485,4327392578125;	267,5;	0,0;	0,0
485,46917724609375;	306,25;	0,0;	0,0
485,5055847167969;	277,75;	0,0;	0,0
485,54193115234375;	301,0;	0,0;	0,0
485,578369140625;	308,0;	0,0;	0,0
485,61474609375;	322,75;	0,0;	0,0
485,651123046875;	275,5;	0,0;	0,0
485,68743896484375;	274,25;	0,0;	0,0
485,7237854003906;	273,5;	0,0;	0,0
485,7601013183594;	313,5;	0,0;	0,0
485,7964172363281;	283,75;	0,0;	0,0
485,83270263671875;	310,25;	0,0;	0,0
485,8690185546875;	330,0;	0,0;	0,0
485,9053039550781;	336,25;	0,0;	0,0
485,9415588378906;	383,25;	0,0;	0,0
485,977783203125;	403,75;	0,0;	0,0
486,0140380859375;	371,0;	0,0;	0,0
486,0502624511719;	287,5;	0,0;	0,0
486,0864562988281;	242,5;	0,0;	0,0
486,1226806640625;	277,5;	0,0;	0,0
486,15887451171875;	240,75;	0,0;	0,0
486,1950378417969;	254,0;	0,0;	0,0
486,231201171875;	252,75;	0,0;	0,0
486,2673645019531;	266,75;	0,0;	0,0
486,3034973144531;	266,25;	0,0;	0,0
486,3396301269531;	262,25;	0,0;	0,0
486,3757019042969;	269,5;	0,0;	0,0
486,4118347167969;	254,75;	0,0;	0,0
486,4479064941406;	269,25;	0,0;	0,0
486,4840087890625;	263,5;	0,0;	0,0
486,52001953125;	248,5;	0,0;	0,0
486,55609130859375;	263,75;	0,0;	0,0
486,59210205078125;	264,25;	0,0;	0,0
486,6281433105469;	259,0;	0,0;	0,0
486,6641540527344;	280,25;	0,0;	0,0
486,7001647949219;	278,25;	0,0;	0,0
486,7361755371094;	280,75;	0,0;	0,0
486,7721252441406;	262,0;	0,0;	0,0
486,80810546875;	303,5;	0,0;	0,0
486,8440246582031;	322,0;	0,0;	0,0
486,8799743652344;	337,5;	0,0;	0,0
486,9158935546875;	349,25;	0,0;	0,0
486,9518127441406;	419,5;	0,0;	0,0
486,98773193359375;	435,25;	0,0;	0,0
487,0235900878906;	485,5;	0,0;	0,0
487,0594787597656;	500,75;	0,0;	0,0
487,0953369140625;	548,5;	0,0;	0,0
487,1311950683594;	729,25;	0,0;	0,0
487,1670227050781;	610,5;	0,0;	0,0
487,20281982421875;	490,25;	0,0;	0,0
487,2386474609375;	454,75;	0,0;	0,0
487,2744140625;	315,75;	0,0;	0,0
487,31024169921875;	267,5;	0,0;	0,0
487,3459777832031;	253,25;	0,0;	0,0
487,38177490234375;	286,0;	0,0;	0,0
487,41748046875;	272,25;	0,0;	0,0
487,4532470703125;	266,25;	0,0;	0,0
487,48895263671875;	262,75;	0,0;	0,0
487,524658203125;	263,0;	0,0;	0,0
487,56036376953125;	277,5;	0,0;	0,0
487,5960693359375;	310,0;	0,0;	0,0
487,6317138671875;	307,0;	0,0;	0,0
487,6673889160156;	305,25;	0,0;	0,0
487,7030029296875;	294,0;	0,0;	0,0
487,7386474609375;	339,25;	0,0;	0,0
487,7742919921875;	333,0;	0,0;	0,0
487,8099060058594;	386,0;	0,0;	0,0
487,84552001953125;	378,5;	0,0;	0,0
487,8810729980469;	312,0;	0,0;	0,0
487,9166564941406;	264,0;	0,0;	0,0
487,95220947265625;	248,5;	0,0;	0,0
487,9877624511719;	257,0;	0,0;	0,0
488,0232849121094;	257,25;	0,0;	0,0
488,0588073730469;	267,5;	0,0;	0,0
488,09429931640625;	277,0;	0,0;	0,0
488,12982177734375;	259,25;	0,0;	0,0
488,165283203125;	258,0;	0,0;	0,0
488,2007751464844;	260,0;	0,0;	0,0
488,2362060546875;	273,75;	0,0;	0,0
488,27166748046875;	286,0;	0,0;	0,0
488,30706787109375;	264,5;	0,0;	0,0
488,3424987792969;	279,0;	0,0;	0,0
488,3779296875;	282,0;	0,0;	0,0
488,4132995605469;	272,75;	0,0;	0,0
488,4486999511719;	286,0;	0,0;	0,0
488,48406982421875;	302,75;	0,0;	0,0
488,5194091796875;	351,5;	0,0;	0,0
488,55474853515625;	301,5;	0,0;	0,0
488,590087890625;	272,75;	0,0;	0,0
488,62542724609375;	273,0;	0,0;	0,0
488,66070556640625;	271,75;	0,0;	0,0
488,69598388671875;	287,75;	0,0;	0,0
488,7312927246094;	284,75;	0,0;	0,0
488,7665710449219;	291,75;	0,0;	0,0
488,80181884765625;	277,5;	0,0;	0,0
488,8370666503906;	361,75;	0,0;	0,0
488,8722839355469;	355,75;	0,0;	0,0
488,907470703125;	468,75;	0,0;	0,0
488,94268798828125;	474,25;	0,0;	0,0
488,9778747558594;	559,75;	0,0;	0,0
489,0130615234375;	586,25;	0,0;	0,0
489,0482177734375;	688,75;	0,0;	0,0
489,0834045410156;	787,25;	0,0;	0,0
489,1184997558594;	782,0;	0,0;	0,0
489,15362548828125;	851,75;	0,0;	0,0
489,1887512207031;	601,5;	0,0;	0,0
489,2238464355469;	351,75;	0,0;	0,0
489,2589416503906;	290,0;	0,0;	0,0
489,2940368652344;	279,5;	0,0;	0,0
489,3290710449219;	261,25;	0,0;	0,0
489,3641662597656;	281,75;	0,0;	0,0
489,399169921875;	263,25;	0,0;	0,0
489,4342346191406;	258,5;	0,0;	0,0
489,46923828125;	246,75;	0,0;	0,0
489,5042419433594;	243,0;	0,0;	0,0
489,5392150878906;	233,75;	0,0;	0,0
489,57421875;	254,5;	0,0;	0,0
489,6091613769531;	252,75;	0,0;	0,0
489,6441345214844;	265,75;	0,0;	0,0
489,6790466308594;	254,5;	0,0;	0,0
489,7139892578125;	259,25;	0,0;	0,0
489,7489013671875;	275,75;	0,0;	0,0
489,78375244140625;	250,25;	0,0;	0,0
489,8186950683594;	272,25;	0,0;	0,0
489,8535461425781;	260,25;	0,0;	0,0
489,888427734375;	263,5;	0,0;	0,0
489,9232482910156;	268,75;	0,0;	0,0
489,9580993652344;	308,0;	0,0;	0,0
489,9928894042969;	300,0;	0,0;	0,0
490,0277099609375;	273,0;	0,0;	0,0
490,0625305175781;	248,75;	0,0;	0,0
490,0972900390625;	259,25;	0,0;	0,0
490,132080078125;	261,0;	0,0;	0,0
490,1668395996094;	290,0;	0,0;	0,0
490,20159912109375;	246,0;	0,0;	0,0
490,236328125;	302,75;	0,0;	0,0
490,27105712890625;	302,5;	0,0;	0,0
490,3057556152344;	296,5;	0,0;	0,0
490,3404541015625;	328,5;	0,0;	0,0
490,3751525878906;	314,0;	0,0;	0,0
490,4097900390625;	237,75;	0,0;	0,0
490,4444580078125;	237,75;	0,0;	0,0
490,4790954589844;	256,25;	0,0;	0,0
490,51373291015625;	244,75;	0,0;	0,0
490,5483703613281;	247,0;	0,0;	0,0
490,58294677734375;	238,75;	0,0;	0,0
490,6175842285156;	235,25;	0,0;	0,0
490,652099609375;	246,0;	0,0;	0,0
490,68670654296875;	249,25;	0,0;	0,0
490,72125244140625;	242,5;	0,0;	0,0
490,75579833984375;	255,25;	0,0;	0,0
490,79034423828125;	245,0;	0,0;	0,0
490,8248291015625;	258,0;	0,0;	0,0
490,8593444824219;	249,5;	0,0;	0,0
490,89385986328125;	257,75;	0,0;	0,0
490,9283447265625;	277,0;	0,0;	0,0
490,9627685546875;	279,5;	0,0;	0,0
490,99725341796875;	276,0;	0,0;	0,0
491,03167724609375;	264,25;	0,0;	0,0
491,0661315917969;	270,25;	0,0;	0,0
491,10052490234375;	266,5;	0,0;	0,0
491,13494873046875;	270,25;	0,0;	0,0
491,1693115234375;	266,5;	0,0;	0,0
491,2037048339844;	244,5;	0,0;	0,0
491,238037109375;	253,5;	0,0;	0,0
491,2724304199219;	280,75;	0,0;	0,0
491,3067321777344;	266,0;	0,0;	0,0
491,3410949707031;	290,25;	0,0;	0,0
491,3753967285156;	306,25;	0,0;	0,0
491,4096984863281;	246,75;	0,0;	0,0
491,4439697265625;	249,25;	0,0;	0,0
491,478271484375;	285,0;	0,0;	0,0
491,51251220703125;	262,5;	0,0;	0,0
491,5467834472656;	247,5;	0,0;	0,0
491,58099365234375;	251,25;	0,0;	0,0
491,6152648925781;	274,0;	0,0;	0,0
491,6494445800781;	296,0;	0,0;	0,0
491,6836853027344;	331,75;	0,0;	0,0
491,71783447265625;	365,75;	0,0;	0,0
491,75201416015625;	379,0;	0,0;	0,0
491,7861633300781;	440,5;	0,0;	0,0
491,8203430175781;	528,0;	0,0;	0,0
491,85443115234375;	619,25;	0,0;	0,0
491,8885498046875;	693,75;	0,0;	0,0
491,9226989746094;	803,0;	0,0;	0,0
491,9568176269531;	698,75;	0,0;	0,0
491,9908752441406;	682,0;	0,0;	0,0
492,02490234375;	759,5;	0,0;	0,0
492,0589904785156;	1018,25;	0,0;	0,0
492,093017578125;	829,0;	0,0;	0,0
492,1270751953125;	405,25;	0,0;	0,0
492,1610412597656;	305,0;	0,0;	0,0
492,1950988769531;	301,75;	0,0;	0,0
492,22906494140625;	277,5;	0,0;	0,0
492,2630615234375;	273,5;	0,0;	0,0
492,2969970703125;	273,0;	0,0;	0,0
492,33099365234375;	279,5;	0,0;	0,0
492,36492919921875;	296,25;	0,0;	0,0
492,39886474609375;	290,25;	0,0;	0,0
492,4327697753906;	276,25;	0,0;	0,0
492,4666748046875;	254,0;	0,0;	0,0
492,5005798339844;	263,75;	0,0;	0,0
492,5344543457031;	268,5;	0,0;	0,0
492,56829833984375;	274,0;	0,0;	0,0
492,60211181640625;	257,5;	0,0;	0,0
492,635986328125;	244,5;	0,0;	0,0
492,66986083984375;	257,75;	0,0;	0,0
492,7036437988281;	262,25;	0,0;	0,0
492,7373962402344;	238,0;	0,0;	0,0
492,771240234375;	254,25;	0,0;	0,0
492,8049621582031;	257,25;	0,0;	0,0
492,8387451171875;	291,75;	0,0;	0,0
492,87249755859375;	247,0;	0,0;	0,0
492,90625;	248,5;	0,0;	0,0
492,93994140625;	234,0;	0,0;	0,0
492,97369384765625;	243,0;	0,0;	0,0
493,00738525390625;	235,25;	0,0;	0,0
493,04107666015625;	266,0;	0,0;	0,0
493,0747375488281;	252,75;	0,0;	0,0
493,1083984375;	240,0;	0,0;	0,0
493,14202880859375;	247,5;	0,0;	0,0
493,1756896972656;	264,0;	0,0;	0,0
493,20928955078125;	290,5;	0,0;	0,0
493,242919921875;	279,25;	0,0;	0,0
493,2764892578125;	296,0;	0,0;	0,0
493,31011962890625;	312,75;	0,0;	0,0
493,3436584472656;	295,5;	0,0;	0,0
493,3772277832031;	326,75;	0,0;	0,0
493,4107360839844;	355,0;	0,0;	0,0
493,4442443847656;	345,0;	0,0;	0,0
493,4778137207031;	266,25;	0,0;	0,0
493,5113525390625;	231,25;	0,0;	0,0
493,5447998046875;	248,75;	0,0;	0,0
493,5782470703125;	261,0;	0,0;	0,0
493,61175537109375;	262,5;	0,0;	0,0
493,6451721191406;	0,0;	0,0;	0,0
