0.0	2.0
Integration time [ms]:	1.05
Averaging Nr. [scans]:1
Smoothing Nr. [pixels]:0
Data measured with spectrometer [name]:b'1703277U8'
Wave	;Sample	;Dark	;Reference	;Scope	
[nm]	;[counts]	;[counts]	;[counts]	
 
493,2108154296875;	583,75;	0,0;	0,0
493,2895202636719;	499,75;	0,0;	0,0
493,36822509765625;	359,0;	0,0;	0,0
493,4468994140625;	310,75;	0,0;	0,0
493,52557373046875;	319,75;	0,0;	0,0
493,6042175292969;	383,25;	0,0;	0,0
493,6828918457031;	507,25;	0,0;	0,0
493,7615051269531;	528,5;	0,0;	0,0
493,8401184082031;	388,75;	0,0;	0,0
493,9187316894531;	313,75;	0,0;	0,0
493,9973449707031;	319,0;	0,0;	0,0
494,075927734375;	313,5;	0,0;	0,0
494,1545104980469;	276,25;	0,0;	0,0
494,2330627441406;	289,25;	0,0;	0,0
494,3116149902344;	329,75;	0,0;	0,0
494,3901672363281;	332,5;	0,0;	0,0
494,4686584472656;	391,75;	0,0;	0,0
494,5472106933594;	358,5;	0,0;	0,0
494,6257019042969;	326,0;	0,0;	0,0
494,7041931152344;	322,25;	0,0;	0,0
494,78265380859375;	310,75;	0,0;	0,0
494,86114501953125;	368,75;	0,0;	0,0
494,9395751953125;	327,25;	0,0;	0,0
495,0180358886719;	323,5;	0,0;	0,0
495,096435546875;	335,0;	0,0;	0,0
495,1748962402344;	340,75;	0,0;	0,0
495,2532653808594;	348,75;	0,0;	0,0
495,3316650390625;	397,5;	0,0;	0,0
495,4100341796875;	644,25;	0,0;	0,0
495,4884338378906;	1590,5;	0,0;	0,0
495,5667724609375;	4451,25;	0,0;	0,0
495,6451110839844;	4762,25;	0,0;	0,0
495,72344970703125;	1071,25;	0,0;	0,0
495,8017883300781;	495,5;	0,0;	0,0
495,8800964355469;	423,25;	0,0;	0,0
495,9583435058594;	374,5;	0,0;	0,0
496,0366516113281;	363,5;	0,0;	0,0
496,11492919921875;	376,0;	0,0;	0,0
496,19317626953125;	354,25;	0,0;	0,0
496,27142333984375;	386,5;	0,0;	0,0
496,34967041015625;	427,25;	0,0;	0,0
496,4278869628906;	523,25;	0,0;	0,0
496,506103515625;	533,5;	0,0;	0,0
496,58428955078125;	451,0;	0,0;	0,0
496,6625061035156;	419,75;	0,0;	0,0
496,74066162109375;	439,5;	0,0;	0,0
496,8188171386719;	429,0;	0,0;	0,0
496,89697265625;	402,25;	0,0;	0,0
496,9751281738281;	400,5;	0,0;	0,0
497,0532531738281;	376,25;	0,0;	0,0
497,1313171386719;	443,25;	0,0;	0,0
497,2094421386719;	456,5;	0,0;	0,0
497,28753662109375;	424,0;	0,0;	0,0
497,3656005859375;	467,75;	0,0;	0,0
497,44366455078125;	386,0;	0,0;	0,0
497,521728515625;	402,0;	0,0;	0,0
497,59979248046875;	445,75;	0,0;	0,0
497,67779541015625;	478,0;	0,0;	0,0
497,7558288574219;	503,75;	0,0;	0,0
497,83380126953125;	533,5;	0,0;	0,0
497,91180419921875;	853,0;	0,0;	0,0
497,9897766113281;	2051,75;	0,0;	0,0
498,0677490234375;	2053,5;	0,0;	0,0
498,1457214355469;	1071,75;	0,0;	0,0
498,2236633300781;	921,75;	0,0;	0,0
498,30157470703125;	787,5;	0,0;	0,0
498,3794860839844;	767,25;	0,0;	0,0
498,4573974609375;	596,75;	0,0;	0,0
498,5353088378906;	423,75;	0,0;	0,0
498,6131896972656;	429,25;	0,0;	0,0
498,6910705566406;	532,75;	0,0;	0,0
498,7688903808594;	602,5;	0,0;	0,0
498,84674072265625;	900,75;	0,0;	0,0
498,924560546875;	1692,75;	0,0;	0,0
499,0024108886719;	1453,5;	0,0;	0,0
499,0802307128906;	458,25;	0,0;	0,0
499,1579895019531;	434,25;	0,0;	0,0
499,23577880859375;	463,75;	0,0;	0,0
499,3135681152344;	432,75;	0,0;	0,0
499,3913269042969;	381,75;	0,0;	0,0
499,4690856933594;	372,0;	0,0;	0,0
499,5467834472656;	429,5;	0,0;	0,0
499,6245422363281;	473,75;	0,0;	0,0
499,7022399902344;	804,75;	0,0;	0,0
499,7799377441406;	1551,75;	0,0;	0,0
499,8576354980469;	1166,0;	0,0;	0,0
499,935302734375;	661,75;	0,0;	0,0
500,0129699707031;	908,75;	0,0;	0,0
500,090576171875;	847,25;	0,0;	0,0
500,1682434082031;	500,75;	0,0;	0,0
500,2458801269531;	475,5;	0,0;	0,0
500,323486328125;	655,75;	0,0;	0,0
500,40106201171875;	1245,75;	0,0;	0,0
500,47869873046875;	1842,5;	0,0;	0,0
500,5562744140625;	1714,25;	0,0;	0,0
500,6337890625;	983,75;	0,0;	0,0
500,71136474609375;	457,75;	0,0;	0,0
500,7889099121094;	434,25;	0,0;	0,0
500,8664245605469;	447,25;	0,0;	0,0
500,9439392089844;	473,5;	0,0;	0,0
501,02142333984375;	722,25;	0,0;	0,0
501,09893798828125;	845,25;	0,0;	0,0
501,1764221191406;	895,0;	0,0;	0,0
501,25384521484375;	1548,5;	0,0;	0,0
501,33135986328125;	1379,75;	0,0;	0,0
501,40875244140625;	769,0;	0,0;	0,0
501,4862060546875;	712,5;	0,0;	0,0
501,5636291503906;	508,0;	0,0;	0,0
501,6410217285156;	591,75;	0,0;	0,0
501,7184143066406;	632,75;	0,0;	0,0
501,7957763671875;	671,5;	0,0;	0,0
501,8731384277344;	734,75;	0,0;	0,0
501,95050048828125;	509,5;	0,0;	0,0
502,0278625488281;	637,25;	0,0;	0,0
502,10516357421875;	888,75;	0,0;	0,0
502,1824951171875;	724,75;	0,0;	0,0
502,2597961425781;	536,25;	0,0;	0,0
502,33709716796875;	741,75;	0,0;	0,0
502,41436767578125;	628,5;	0,0;	0,0
502,4916687011719;	529,75;	0,0;	0,0
502,56890869140625;	519,25;	0,0;	0,0
502,6461486816406;	536,5;	0,0;	0,0
502,7233581542969;	393,75;	0,0;	0,0
502,8006286621094;	385,75;	0,0;	0,0
502,8778076171875;	358,25;	0,0;	0,0
502,9549865722656;	355,0;	0,0;	0,0
503,03216552734375;	316,25;	0,0;	0,0
503,1093444824219;	362,75;	0,0;	0,0
503,1865234375;	396,75;	0,0;	0,0
503,2636413574219;	402,0;	0,0;	0,0
503,34075927734375;	597,0;	0,0;	0,0
503,41790771484375;	1064,5;	0,0;	0,0
503,4949951171875;	1144,25;	0,0;	0,0
503,57208251953125;	628,75;	0,0;	0,0
503,6492004394531;	691,5;	0,0;	0,0
503,72625732421875;	778,0;	0,0;	0,0
503,8033142089844;	787,75;	0,0;	0,0
503,88037109375;	896,5;	0,0;	0,0
503,9573974609375;	815,75;	0,0;	0,0
504,034423828125;	776,75;	0,0;	0,0
504,1114196777344;	458,5;	0,0;	0,0
504,18841552734375;	384,25;	0,0;	0,0
504,2654113769531;	403,25;	0,0;	0,0
504,3423767089844;	384,75;	0,0;	0,0
504,4193115234375;	350,75;	0,0;	0,0
504,49627685546875;	324,25;	0,0;	0,0
504,5732421875;	369,0;	0,0;	0,0
504,650146484375;	423,0;	0,0;	0,0
504,7270202636719;	488,25;	0,0;	0,0
504,8039245605469;	738,25;	0,0;	0,0
504,880859375;	674,0;	0,0;	0,0
504,95770263671875;	532,5;	0,0;	0,0
505,0345458984375;	583,0;	0,0;	0,0
505,1114196777344;	416,5;	0,0;	0,0
505,1882629394531;	375,5;	0,0;	0,0
505,2650451660156;	387,0;	0,0;	0,0
505,34185791015625;	391,75;	0,0;	0,0
505,4186706542969;	317,5;	0,0;	0,0
505,4954528808594;	332,75;	0,0;	0,0
505,57220458984375;	357,75;	0,0;	0,0
505,6489562988281;	333,0;	0,0;	0,0
505,72576904296875;	323,75;	0,0;	0,0
505,802490234375;	337,75;	0,0;	0,0
505,87921142578125;	353,25;	0,0;	0,0
505,9559020996094;	322,25;	0,0;	0,0
506,0326232910156;	375,5;	0,0;	0,0
506,1092834472656;	398,25;	0,0;	0,0
506,1859436035156;	468,75;	0,0;	0,0
506,2626037597656;	775,0;	0,0;	0,0
506,3392639160156;	989,0;	0,0;	0,0
506,4159240722656;	556,75;	0,0;	0,0
506,4925231933594;	425,5;	0,0;	0,0
506,56915283203125;	431,75;	0,0;	0,0
506,645751953125;	464,0;	0,0;	0,0
506,72235107421875;	616,5;	0,0;	0,0
506,7989196777344;	491,25;	0,0;	0,0
506,8754577636719;	409,75;	0,0;	0,0
506,9520263671875;	432,75;	0,0;	0,0
507,028564453125;	488,5;	0,0;	0,0
507,1050720214844;	425,75;	0,0;	0,0
507,1816101074219;	453,0;	0,0;	0,0
507,2580871582031;	518,75;	0,0;	0,0
507,3345642089844;	618,25;	0,0;	0,0
507,4110412597656;	447,75;	0,0;	0,0
507,487548828125;	386,75;	0,0;	0,0
507,56396484375;	407,5;	0,0;	0,0
507,640380859375;	426,25;	0,0;	0,0
507,71685791015625;	523,5;	0,0;	0,0
507,7932434082031;	597,75;	0,0;	0,0
507,86962890625;	428,25;	0,0;	0,0
507,9460144042969;	351,25;	0,0;	0,0
508,02239990234375;	341,5;	0,0;	0,0
508,0987548828125;	378,75;	0,0;	0,0
508,17510986328125;	478,25;	0,0;	0,0
508,2514343261719;	411,0;	0,0;	0,0
508,3277893066406;	349,0;	0,0;	0,0
508,4040832519531;	340,75;	0,0;	0,0
508,4803771972656;	344,25;	0,0;	0,0
508,556640625;	361,0;	0,0;	0,0
508,6329650878906;	346,5;	0,0;	0,0
508,7091979980469;	328,0;	0,0;	0,0
508,78546142578125;	353,75;	0,0;	0,0
508,8616943359375;	388,0;	0,0;	0,0
508,93792724609375;	401,5;	0,0;	0,0
509,0141296386719;	380,25;	0,0;	0,0
509,09033203125;	327,0;	0,0;	0,0
509,1665344238281;	327,75;	0,0;	0,0
509,24267578125;	310,0;	0,0;	0,0
509,31884765625;	335,25;	0,0;	0,0
509,3949890136719;	379,5;	0,0;	0,0
509,4711608886719;	383,5;	0,0;	0,0
509,5472717285156;	473,75;	0,0;	0,0
509,62335205078125;	462,0;	0,0;	0,0
509,699462890625;	560,5;	0,0;	0,0
509,77557373046875;	467,25;	0,0;	0,0
509,85162353515625;	391,75;	0,0;	0,0
509,92767333984375;	348,25;	0,0;	0,0
510,00372314453125;	326,0;	0,0;	0,0
510,0798034667969;	335,25;	0,0;	0,0
510,15582275390625;	325,5;	0,0;	0,0
510,2318115234375;	374,75;	0,0;	0,0
510,3078308105469;	387,5;	0,0;	0,0
510,3837890625;	457,5;	0,0;	0,0
510,45977783203125;	423,0;	0,0;	0,0
510,5357360839844;	474,25;	0,0;	0,0
510,6116943359375;	651,25;	0,0;	0,0
510,6876220703125;	459,25;	0,0;	0,0
510,7635498046875;	405,75;	0,0;	0,0
510,8394470214844;	527,5;	0,0;	0,0
510,9153747558594;	535,5;	0,0;	0,0
510,9912414550781;	362,5;	0,0;	0,0
511,0671081542969;	339,5;	0,0;	0,0
511,1429443359375;	377,25;	0,0;	0,0
511,2188415527344;	380,25;	0,0;	0,0
511,2946472167969;	324,25;	0,0;	0,0
511,3704833984375;	318,75;	0,0;	0,0
511,4462890625;	340,25;	0,0;	0,0
511,5220947265625;	329,0;	0,0;	0,0
511,59783935546875;	312,0;	0,0;	0,0
511,6736145019531;	321,5;	0,0;	0,0
511,7494201660156;	372,25;	0,0;	0,0
511,82513427734375;	396,0;	0,0;	0,0
511,90087890625;	443,0;	0,0;	0,0
511,97662353515625;	435,0;	0,0;	0,0
512,0523071289062;	401,75;	0,0;	0,0
512,1280517578125;	397,0;	0,0;	0,0
512,2036743164062;	438,0;	0,0;	0,0
512,2793579101562;	491,0;	0,0;	0,0
512,3550415039062;	512,5;	0,0;	0,0
512,4306640625;	508,25;	0,0;	0,0
512,5062866210938;	465,0;	0,0;	0,0
512,5819702148438;	427,0;	0,0;	0,0
512,657470703125;	377,5;	0,0;	0,0
512,7330932617188;	361,75;	0,0;	0,0
512,8087158203125;	386,0;	0,0;	0,0
512,88427734375;	400,0;	0,0;	0,0
512,9598999023438;	439,0;	0,0;	0,0
513,035400390625;	481,25;	0,0;	0,0
513,1109008789062;	576,75;	0,0;	0,0
513,1864624023438;	742,5;	0,0;	0,0
513,2619018554688;	665,0;	0,0;	0,0
513,33740234375;	451,0;	0,0;	0,0
513,4129638671875;	404,5;	0,0;	0,0
513,4884033203125;	439,75;	0,0;	0,0
513,5638427734375;	526,25;	0,0;	0,0
513,6392822265625;	626,5;	0,0;	0,0
513,7147216796875;	906,0;	0,0;	0,0
513,7901000976562;	1597,75;	0,0;	0,0
513,8655395507812;	1031,75;	0,0;	0,0
513,94091796875;	481,0;	0,0;	0,0
514,0162963867188;	505,25;	0,0;	0,0
514,0916748046875;	559,5;	0,0;	0,0
514,1669921875;	512,75;	0,0;	0,0
514,2423706054688;	401,25;	0,0;	0,0
514,3176879882812;	397,0;	0,0;	0,0
514,3930053710938;	439,0;	0,0;	0,0
514,4683837890625;	396,75;	0,0;	0,0
514,5435791015625;	456,25;	0,0;	0,0
514,618896484375;	496,0;	0,0;	0,0
514,694091796875;	468,5;	0,0;	0,0
514,7694091796875;	427,0;	0,0;	0,0
514,8446655273438;	415,25;	0,0;	0,0
514,9198608398438;	450,5;	0,0;	0,0
514,9950561523438;	462,0;	0,0;	0,0
515,0703125;	476,75;	0,0;	0,0
515,1454467773438;	430,0;	0,0;	0,0
515,220703125;	411,5;	0,0;	0,0
515,2957763671875;	384,75;	0,0;	0,0
515,3709716796875;	359,0;	0,0;	0,0
515,4461059570312;	362,25;	0,0;	0,0
515,521240234375;	366,5;	0,0;	0,0
515,5963745117188;	351,75;	0,0;	0,0
515,6714477539062;	354,25;	0,0;	0,0
515,7465209960938;	395,5;	0,0;	0,0
515,8215942382812;	370,0;	0,0;	0,0
515,896728515625;	398,75;	0,0;	0,0
515,9717407226562;	439,25;	0,0;	0,0
516,0467529296875;	525,0;	0,0;	0,0
516,121826171875;	665,25;	0,0;	0,0
516,1968383789062;	538,5;	0,0;	0,0
516,2717895507812;	447,75;	0,0;	0,0
516,3468017578125;	537,5;	0,0;	0,0
516,4217529296875;	638,5;	0,0;	0,0
516,4967651367188;	1078,5;	0,0;	0,0
516,5716552734375;	2649,75;	0,0;	0,0
516,6466674804688;	2206,75;	0,0;	0,0
516,7215576171875;	950,25;	0,0;	0,0
516,7964477539062;	730,25;	0,0;	0,0
516,871337890625;	530,25;	0,0;	0,0
516,9461669921875;	759,75;	0,0;	0,0
517,0211181640625;	1060,75;	0,0;	0,0
517,0960083007812;	814,0;	0,0;	0,0
517,1707763671875;	771,5;	0,0;	0,0
517,24560546875;	752,0;	0,0;	0,0
517,3204345703125;	433,75;	0,0;	0,0
517,3952026367188;	336,75;	0,0;	0,0
517,4700927734375;	349,0;	0,0;	0,0
517,5448608398438;	339,25;	0,0;	0,0
517,61962890625;	371,0;	0,0;	0,0
517,6943969726562;	349,75;	0,0;	0,0
517,7691040039062;	357,25;	0,0;	0,0
517,8438110351562;	377,0;	0,0;	0,0
517,9185791015625;	371,0;	0,0;	0,0
517,9932250976562;	357,0;	0,0;	0,0
518,0679321289062;	389,75;	0,0;	0,0
518,1426391601562;	517,5;	0,0;	0,0
518,21728515625;	687,5;	0,0;	0,0
518,2919311523438;	493,5;	0,0;	0,0
518,3665771484375;	395,0;	0,0;	0,0
518,4412231445312;	380,25;	0,0;	0,0
518,515869140625;	407,25;	0,0;	0,0
518,5903930664062;	425,25;	0,0;	0,0
518,6650390625;	461,25;	0,0;	0,0
518,7396240234375;	551,5;	0,0;	0,0
518,8141479492188;	476,5;	0,0;	0,0
518,8887329101562;	565,0;	0,0;	0,0
518,9631958007812;	1044,0;	0,0;	0,0
519,0377807617188;	1571,5;	0,0;	0,0
519,1123046875;	1701,75;	0,0;	0,0
519,186767578125;	1029,25;	0,0;	0,0
519,2612915039062;	613,0;	0,0;	0,0
519,3358154296875;	813,0;	0,0;	0,0
519,41015625;	720,75;	0,0;	0,0
519,4846801757812;	489,75;	0,0;	0,0
519,5591430664062;	414,0;	0,0;	0,0
519,633544921875;	415,5;	0,0;	0,0
519,7080078125;	454,0;	0,0;	0,0
519,7822875976562;	398,25;	0,0;	0,0
519,856689453125;	361,25;	0,0;	0,0
519,93115234375;	399,5;	0,0;	0,0
520,0054321289062;	486,25;	0,0;	0,0
520,0797729492188;	564,0;	0,0;	0,0
520,1541748046875;	464,0;	0,0;	0,0
520,2283935546875;	421,5;	0,0;	0,0
520,302734375;	431,75;	0,0;	0,0
520,3770751953125;	431,0;	0,0;	0,0
520,4512939453125;	449,0;	0,0;	0,0
520,525634765625;	409,5;	0,0;	0,0
520,5997924804688;	463,25;	0,0;	0,0
520,674072265625;	647,75;	0,0;	0,0
520,7483520507812;	658,0;	0,0;	0,0
520,822509765625;	639,5;	0,0;	0,0
520,8967895507812;	828,25;	0,0;	0,0
520,970947265625;	534,0;	0,0;	0,0
521,0451049804688;	367,25;	0,0;	0,0
521,1192626953125;	362,0;	0,0;	0,0
521,1934204101562;	382,75;	0,0;	0,0
521,267578125;	451,5;	0,0;	0,0
521,3417358398438;	571,0;	0,0;	0,0
521,415771484375;	647,5;	0,0;	0,0
521,4898681640625;	652,0;	0,0;	0,0
521,5640258789062;	556,25;	0,0;	0,0
521,6380615234375;	569,75;	0,0;	0,0
521,712158203125;	458,5;	0,0;	0,0
521,7862548828125;	376,25;	0,0;	0,0
521,8602294921875;	376,0;	0,0;	0,0
521,9342651367188;	368,0;	0,0;	0,0
522,0082397460938;	342,75;	0,0;	0,0
522,0822143554688;	380,25;	0,0;	0,0
522,1563110351562;	404,5;	0,0;	0,0
522,230224609375;	487,5;	0,0;	0,0
522,30419921875;	581,0;	0,0;	0,0
522,3781127929688;	606,25;	0,0;	0,0
522,4520874023438;	987,0;	0,0;	0,0
522,5260009765625;	2210,25;	0,0;	0,0
522,599853515625;	2292,75;	0,0;	0,0
522,6737670898438;	815,0;	0,0;	0,0
522,7476806640625;	482,5;	0,0;	0,0
522,821533203125;	559,0;	0,0;	0,0
522,8953857421875;	499,0;	0,0;	0,0
522,96923828125;	530,75;	0,0;	0,0
523,0430297851562;	942,5;	0,0;	0,0
523,1168823242188;	2031,25;	0,0;	0,0
523,190673828125;	1977,5;	0,0;	0,0
523,2644653320312;	713,5;	0,0;	0,0
523,3382568359375;	475,25;	0,0;	0,0
523,4119873046875;	425,75;	0,0;	0,0
523,4857788085938;	379,0;	0,0;	0,0
523,5595703125;	339,25;	0,0;	0,0
523,6332397460938;	352,25;	0,0;	0,0
523,7069702148438;	381,5;	0,0;	0,0
523,7807006835938;	367,25;	0,0;	0,0
523,8543701171875;	320,5;	0,0;	0,0
523,927978515625;	341,5;	0,0;	0,0
524,0016479492188;	380,0;	0,0;	0,0
524,0753173828125;	476,25;	0,0;	0,0
524,14892578125;	429,5;	0,0;	0,0
524,2225341796875;	358,25;	0,0;	0,0
524,2962036132812;	376,75;	0,0;	0,0
524,3698120117188;	338,0;	0,0;	0,0
524,443359375;	363,0;	0,0;	0,0
524,5169067382812;	373,75;	0,0;	0,0
524,5905151367188;	398,5;	0,0;	0,0
524,6640014648438;	342,25;	0,0;	0,0
524,7376098632812;	349,5;	0,0;	0,0
524,8110961914062;	386,5;	0,0;	0,0
524,8845825195312;	449,75;	0,0;	0,0
524,9580688476562;	435,75;	0,0;	0,0
525,0315551757812;	367,5;	0,0;	0,0
525,10498046875;	370,25;	0,0;	0,0
525,178466796875;	374,75;	0,0;	0,0
525,2518920898438;	376,25;	0,0;	0,0
525,3253173828125;	362,25;	0,0;	0,0
525,3987426757812;	382,75;	0,0;	0,0
525,47216796875;	378,0;	0,0;	0,0
525,5455322265625;	345,75;	0,0;	0,0
525,618896484375;	336,5;	0,0;	0,0
525,6922607421875;	338,0;	0,0;	0,0
525,765625;	333,75;	0,0;	0,0
525,8389892578125;	366,5;	0,0;	0,0
525,9122924804688;	414,25;	0,0;	0,0
525,9856567382812;	542,25;	0,0;	0,0
526,0588989257812;	662,5;	0,0;	0,0
526,1322021484375;	657,75;	0,0;	0,0
526,2054443359375;	675,25;	0,0;	0,0
526,2786865234375;	656,5;	0,0;	0,0
526,3519897460938;	832,5;	0,0;	0,0
526,4251098632812;	1104,75;	0,0;	0,0
526,4984130859375;	1376,25;	0,0;	0,0
526,5715942382812;	1141,5;	0,0;	0,0
526,644775390625;	878,75;	0,0;	0,0
526,718017578125;	1963,25;	0,0;	0,0
526,7911376953125;	4722,75;	0,0;	0,0
526,8642578125;	4509,0;	0,0;	0,0
526,9374389648438;	1979,75;	0,0;	0,0
527,0105590820312;	602,75;	0,0;	0,0
527,0836791992188;	463,5;	0,0;	0,0
527,15673828125;	542,25;	0,0;	0,0
527,2298583984375;	525,5;	0,0;	0,0
527,3029174804688;	391,75;	0,0;	0,0
527,3760375976562;	387,75;	0,0;	0,0
527,4490356445312;	400,75;	0,0;	0,0
527,5220336914062;	370,5;	0,0;	0,0
527,5950927734375;	360,25;	0,0;	0,0
527,6680908203125;	352,75;	0,0;	0,0
527,7411499023438;	343,25;	0,0;	0,0
527,8140869140625;	389,75;	0,0;	0,0
527,8870849609375;	392,75;	0,0;	0,0
527,9600219726562;	515,5;	0,0;	0,0
528,032958984375;	695,25;	0,0;	0,0
528,1058959960938;	665,0;	0,0;	0,0
528,1788330078125;	830,75;	0,0;	0,0
528,251708984375;	860,75;	0,0;	0,0
528,3245849609375;	517,75;	0,0;	0,0
528,3974609375;	405,5;	0,0;	0,0
528,4703369140625;	377,0;	0,0;	0,0
528,543212890625;	371,25;	0,0;	0,0
528,6160278320312;	335,75;	0,0;	0,0
528,6888427734375;	393,25;	0,0;	0,0
528,7616577148438;	370,25;	0,0;	0,0
528,8344116210938;	348,5;	0,0;	0,0
528,9072265625;	354,5;	0,0;	0,0
528,97998046875;	348,25;	0,0;	0,0
529,0527954101562;	346,5;	0,0;	0,0
529,12548828125;	360,5;	0,0;	0,0
529,1982421875;	341,25;	0,0;	0,0
529,27099609375;	349,75;	0,0;	0,0
529,34375;	364,0;	0,0;	0,0
529,4163208007812;	380,25;	0,0;	0,0
529,4890747070312;	384,75;	0,0;	0,0
529,561767578125;	392,0;	0,0;	0,0
529,6343383789062;	395,25;	0,0;	0,0
529,70703125;	381,0;	0,0;	0,0
529,7796020507812;	398,5;	0,0;	0,0
529,8522338867188;	350,25;	0,0;	0,0
529,9249267578125;	402,0;	0,0;	0,0
529,9974365234375;	450,5;	0,0;	0,0
530,070068359375;	601,0;	0,0;	0,0
530,142578125;	520,25;	0,0;	0,0
530,2151489257812;	356,5;	0,0;	0,0
530,2876586914062;	352,5;	0,0;	0,0
530,3602294921875;	337,75;	0,0;	0,0
530,4326782226562;	349,5;	0,0;	0,0
530,5052490234375;	340,0;	0,0;	0,0
530,57763671875;	377,75;	0,0;	0,0
530,650146484375;	343,75;	0,0;	0,0
530,72265625;	326,75;	0,0;	0,0
530,7950439453125;	344,75;	0,0;	0,0
530,8674926757812;	366,5;	0,0;	0,0
530,93994140625;	340,25;	0,0;	0,0
531,0122680664062;	344,75;	0,0;	0,0
531,084716796875;	358,75;	0,0;	0,0
531,1571044921875;	351,75;	0,0;	0,0
531,2294311523438;	356,75;	0,0;	0,0
531,3018188476562;	373,0;	0,0;	0,0
531,3740844726562;	344,25;	0,0;	0,0
531,4464111328125;	383,75;	0,0;	0,0
531,518798828125;	414,75;	0,0;	0,0
531,591064453125;	393,75;	0,0;	0,0
531,6633911132812;	360,5;	0,0;	0,0
531,7356567382812;	355,5;	0,0;	0,0
531,807861328125;	350,75;	0,0;	0,0
531,880126953125;	367,25;	0,0;	0,0
531,9523315429688;	359,25;	0,0;	0,0
532,0245361328125;	401,75;	0,0;	0,0
532,0968017578125;	439,25;	0,0;	0,0
532,1689453125;	736,75;	0,0;	0,0
532,2411499023438;	1419,5;	0,0;	0,0
532,3133544921875;	1447,0;	0,0;	0,0
532,3854370117188;	710,75;	0,0;	0,0
532,4576416015625;	578,5;	0,0;	0,0
532,5297241210938;	926,25;	0,0;	0,0
532,6018676757812;	2450,75;	0,0;	0,0
532,6739501953125;	3659,5;	0,0;	0,0
532,7459716796875;	1831,25;	0,0;	0,0
532,818115234375;	551,75;	0,0;	0,0
532,8901977539062;	407,0;	0,0;	0,0
532,9622192382812;	361,25;	0,0;	0,0
533,0342407226562;	348,75;	0,0;	0,0
533,1062622070312;	419,0;	0,0;	0,0
533,1782836914062;	402,25;	0,0;	0,0
533,2503051757812;	360,5;	0,0;	0,0
533,3222045898438;	376,5;	0,0;	0,0
533,3942260742188;	372,75;	0,0;	0,0
533,4661865234375;	365,0;	0,0;	0,0
533,5380859375;	370,0;	0,0;	0,0
533,6100463867188;	359,75;	0,0;	0,0
533,6819458007812;	393,75;	0,0;	0,0
533,7538452148438;	467,25;	0,0;	0,0
533,82568359375;	713,5;	0,0;	0,0
533,8976440429688;	859,5;	0,0;	0,0
533,9694213867188;	817,75;	0,0;	0,0
534,0413208007812;	526,75;	0,0;	0,0
534,1130981445312;	377,5;	0,0;	0,0
534,1849975585938;	394,75;	0,0;	0,0
534,2567749023438;	363,75;	0,0;	0,0
534,3284912109375;	348,75;	0,0;	0,0
534,4003295898438;	354,75;	0,0;	0,0
534,4721069335938;	339,25;	0,0;	0,0
534,5438842773438;	351,75;	0,0;	0,0
534,6156005859375;	367,75;	0,0;	0,0
534,6873779296875;	383,75;	0,0;	0,0
534,759033203125;	480,75;	0,0;	0,0
534,830810546875;	493,5;	0,0;	0,0
534,9024047851562;	395,25;	0,0;	0,0
534,97412109375;	413,25;	0,0;	0,0
535,0457763671875;	361,25;	0,0;	0,0
535,1173706054688;	381,25;	0,0;	0,0
535,1890869140625;	368,75;	0,0;	0,0
535,2607421875;	385,0;	0,0;	0,0
535,332275390625;	378,5;	0,0;	0,0
535,4038696289062;	371,5;	0,0;	0,0
535,4754638671875;	356,5;	0,0;	0,0
535,5469970703125;	379,25;	0,0;	0,0
535,6185913085938;	358,5;	0,0;	0,0
535,6901245117188;	363,75;	0,0;	0,0
535,7616577148438;	372,75;	0,0;	0,0
535,8331909179688;	354,75;	0,0;	0,0
535,9046630859375;	399,5;	0,0;	0,0
535,9761962890625;	423,75;	0,0;	0,0
536,047607421875;	393,25;	0,0;	0,0
536,1190185546875;	432,75;	0,0;	0,0
536,1905517578125;	496,75;	0,0;	0,0
536,2619018554688;	648,25;	0,0;	0,0
536,3333740234375;	769,75;	0,0;	0,0
536,4048461914062;	722,5;	0,0;	0,0
536,4761352539062;	669,25;	0,0;	0,0
536,5475463867188;	804,25;	0,0;	0,0
536,6189575195312;	830,0;	0,0;	0,0
536,6902465820312;	662,75;	0,0;	0,0
536,7615966796875;	787,25;	0,0;	0,0
536,8329467773438;	1088,5;	0,0;	0,0
536,9042358398438;	1377,0;	0,0;	0,0
536,9755859375;	2544,5;	0,0;	0,0
537,046875;	2140,25;	0,0;	0,0
537,1181030273438;	729,0;	0,0;	0,0
537,1893920898438;	425,75;	0,0;	0,0
537,2606201171875;	404,5;	0,0;	0,0
537,3319091796875;	388,25;	0,0;	0,0
537,403076171875;	378,5;	0,0;	0,0
537,4743041992188;	422,5;	0,0;	0,0
537,5454711914062;	423,75;	0,0;	0,0
537,6165771484375;	395,25;	0,0;	0,0
537,6878051757812;	373,5;	0,0;	0,0
537,7589721679688;	426,75;	0,0;	0,0
537,830078125;	416,75;	0,0;	0,0
537,9012451171875;	411,75;	0,0;	0,0
537,9723510742188;	509,5;	0,0;	0,0
538,0433959960938;	637,75;	0,0;	0,0
538,1145629882812;	945,25;	0,0;	0,0
538,1856079101562;	1233,25;	0,0;	0,0
538,2566528320312;	874,25;	0,0;	0,0
538,3276977539062;	517,75;	0,0;	0,0
538,398681640625;	442,25;	0,0;	0,0
538,4697265625;	413,0;	0,0;	0,0
538,5408325195312;	416,0;	0,0;	0,0
538,6117553710938;	395,0;	0,0;	0,0
538,6827392578125;	411,75;	0,0;	0,0
538,753662109375;	445,5;	0,0;	0,0
538,8246459960938;	482,0;	0,0;	0,0
538,8956298828125;	419,5;	0,0;	0,0
538,9664916992188;	442,5;	0,0;	0,0
539,0374145507812;	464,75;	0,0;	0,0
539,1083374023438;	578,25;	0,0;	0,0
539,1791381835938;	752,0;	0,0;	0,0
539,2500610351562;	547,75;	0,0;	0,0
539,3209228515625;	472,75;	0,0;	0,0
539,3917236328125;	465,25;	0,0;	0,0
539,4625854492188;	720,5;	0,0;	0,0
539,5333862304688;	1424,5;	0,0;	0,0
539,6041870117188;	1501,75;	0,0;	0,0
539,6749877929688;	693,25;	0,0;	0,0
539,7457275390625;	471,0;	0,0;	0,0
539,8165283203125;	499,25;	0,0;	0,0
539,8872680664062;	584,25;	0,0;	0,0
539,9580078125;	570,75;	0,0;	0,0
540,0286865234375;	520,5;	0,0;	0,0
540,0994873046875;	587,0;	0,0;	0,0
540,170166015625;	852,5;	0,0;	0,0
540,2408447265625;	1302,0;	0,0;	0,0
540,3114624023438;	1388,25;	0,0;	0,0
540,3821411132812;	1580,75;	0,0;	0,0
540,4528198242188;	1879,5;	0,0;	0,0
540,5233764648438;	912,75;	0,0;	0,0
540,5940551757812;	461,0;	0,0;	0,0
540,6646728515625;	484,0;	0,0;	0,0
540,7351684570312;	504,25;	0,0;	0,0
540,8057861328125;	557,75;	0,0;	0,0
540,8763427734375;	696,25;	0,0;	0,0
540,9468383789062;	818,5;	0,0;	0,0
541,0174560546875;	631,5;	0,0;	0,0
541,087890625;	483,5;	0,0;	0,0
541,158447265625;	507,25;	0,0;	0,0
541,2289428710938;	622,0;	0,0;	0,0
541,2994384765625;	893,25;	0,0;	0,0
541,369873046875;	1099,25;	0,0;	0,0
541,4403686523438;	778,75;	0,0;	0,0
541,5107421875;	511,0;	0,0;	0,0
541,5811767578125;	443,0;	0,0;	0,0
541,6515502929688;	446,5;	0,0;	0,0
541,7219848632812;	408,5;	0,0;	0,0
541,7923583984375;	405,25;	0,0;	0,0
541,8627319335938;	439,5;	0,0;	0,0
541,93310546875;	449,5;	0,0;	0,0
542,0034790039062;	480,25;	0,0;	0,0
542,07373046875;	614,25;	0,0;	0,0
542,1441040039062;	809,0;	0,0;	0,0
542,21435546875;	1175,25;	0,0;	0,0
542,28466796875;	1097,25;	0,0;	0,0
542,3549194335938;	709,0;	0,0;	0,0
542,4251708984375;	503,5;	0,0;	0,0
542,4954833984375;	464,0;	0,0;	0,0
542,5657348632812;	423,5;	0,0;	0,0
542,6358642578125;	489,0;	0,0;	0,0
542,7061157226562;	712,0;	0,0;	0,0
542,7763671875;	1520,25;	0,0;	0,0
542,846435546875;	1929,0;	0,0;	0,0
542,9166870117188;	882,75;	0,0;	0,0
542,98681640625;	447,0;	0,0;	0,0
543,0569458007812;	452,5;	0,0;	0,0
543,1271362304688;	431,5;	0,0;	0,0
543,1971435546875;	574,5;	0,0;	0,0
543,267333984375;	1048,25;	0,0;	0,0
543,33740234375;	1096,5;	0,0;	0,0
543,407470703125;	612,75;	0,0;	0,0
543,4774780273438;	419,75;	0,0;	0,0
543,547607421875;	370,75;	0,0;	0,0
543,6175537109375;	382,0;	0,0;	0,0
543,6876220703125;	384,25;	0,0;	0,0
543,7576293945312;	385,75;	0,0;	0,0
543,8275756835938;	379,75;	0,0;	0,0
543,8975830078125;	376,75;	0,0;	0,0
543,9674682617188;	393,0;	0,0;	0,0
544,0374755859375;	414,5;	0,0;	0,0
544,107421875;	401,25;	0,0;	0,0
544,1773071289062;	449,25;	0,0;	0,0
544,2472534179688;	513,75;	0,0;	0,0
544,317138671875;	635,0;	0,0;	0,0
544,386962890625;	714,75;	0,0;	0,0
544,4568481445312;	965,0;	0,0;	0,0
544,5266723632812;	1883,5;	0,0;	0,0
544,5965576171875;	1492,25;	0,0;	0,0
544,6663818359375;	587,5;	0,0;	0,0
544,7361450195312;	415,25;	0,0;	0,0
544,8060302734375;	435,0;	0,0;	0,0
544,8757934570312;	401,75;	0,0;	0,0
544,945556640625;	395,5;	0,0;	0,0
545,0153198242188;	404,25;	0,0;	0,0
545,0850830078125;	422,5;	0,0;	0,0
545,15478515625;	458,0;	0,0;	0,0
545,2244873046875;	542,25;	0,0;	0,0
545,294189453125;	732,75;	0,0;	0,0
545,3639526367188;	1344,0;	0,0;	0,0
545,43359375;	1583,25;	0,0;	0,0
545,5032348632812;	881,0;	0,0;	0,0
545,5729370117188;	463,5;	0,0;	0,0
545,6424560546875;	405,25;	0,0;	0,0
545,712158203125;	419,5;	0,0;	0,0
545,78173828125;	389,5;	0,0;	0,0
545,851318359375;	422,5;	0,0;	0,0
545,9208984375;	434,25;	0,0;	0,0
545,9905395507812;	483,0;	0,0;	0,0
546,0599975585938;	539,25;	0,0;	0,0
546,1295776367188;	641,25;	0,0;	0,0
546,1990966796875;	652,25;	0,0;	0,0
546,2686157226562;	516,0;	0,0;	0,0
546,338134765625;	426,5;	0,0;	0,0
546,4075317382812;	451,5;	0,0;	0,0
546,4771118164062;	447,0;	0,0;	0,0
546,5465698242188;	496,5;	0,0;	0,0
546,615966796875;	398,5;	0,0;	0,0
546,6853637695312;	408,25;	0,0;	0,0
546,7548217773438;	400,75;	0,0;	0,0
546,82421875;	419,5;	0,0;	0,0
546,8936157226562;	415,75;	0,0;	0,0
546,9630126953125;	424,75;	0,0;	0,0
547,0323486328125;	433,0;	0,0;	0,0
547,1016845703125;	444,25;	0,0;	0,0
547,1710205078125;	473,75;	0,0;	0,0
547,2403564453125;	531,25;	0,0;	0,0
547,3096923828125;	502,75;	0,0;	0,0
547,37890625;	490,0;	0,0;	0,0
547,4482421875;	548,0;	0,0;	0,0
547,5175170898438;	685,25;	0,0;	0,0
547,586669921875;	600,0;	0,0;	0,0
547,6559448242188;	509,75;	0,0;	0,0
547,7252197265625;	444,5;	0,0;	0,0
547,7943725585938;	428,5;	0,0;	0,0
547,8636474609375;	464,0;	0,0;	0,0
547,9327392578125;	494,0;	0,0;	0,0
548,001953125;	507,75;	0,0;	0,0
548,0711059570312;	483,75;	0,0;	0,0
548,1401977539062;	465,75;	0,0;	0,0
548,2093505859375;	475,5;	0,0;	0,0
548,2784423828125;	421,5;	0,0;	0,0
548,3475341796875;	404,75;	0,0;	0,0
548,4166259765625;	418,25;	0,0;	0,0
548,4857177734375;	419,75;	0,0;	0,0
548,5547485351562;	416,25;	0,0;	0,0
548,6238403320312;	511,25;	0,0;	0,0
548,6928100585938;	509,75;	0,0;	0,0
548,7619018554688;	460,5;	0,0;	0,0
548,8309326171875;	503,25;	0,0;	0,0
548,8998413085938;	464,0;	0,0;	0,0
548,9688720703125;	472,5;	0,0;	0,0
549,0377807617188;	411,25;	0,0;	0,0
549,1067504882812;	422,75;	0,0;	0,0
549,1756591796875;	470,0;	0,0;	0,0
549,2445678710938;	438,0;	0,0;	0,0
549,3135375976562;	437,25;	0,0;	0,0
549,3824462890625;	442,0;	0,0;	0,0
549,4512939453125;	444,25;	0,0;	0,0
549,5201416015625;	481,5;	0,0;	0,0
549,5890502929688;	614,0;	0,0;	0,0
549,6578369140625;	554,0;	0,0;	0,0
549,7266845703125;	472,5;	0,0;	0,0
549,7954711914062;	452,5;	0,0;	0,0
549,8642578125;	492,75;	0,0;	0,0
549,93310546875;	523,0;	0,0;	0,0
550,0017700195312;	618,5;	0,0;	0,0
550,070556640625;	529,25;	0,0;	0,0
550,1393432617188;	425,75;	0,0;	0,0
550,2080078125;	497,75;	0,0;	0,0
550,2767944335938;	498,0;	0,0;	0,0
550,345458984375;	492,75;	0,0;	0,0
550,4141235351562;	519,0;	0,0;	0,0
550,4828491210938;	649,75;	0,0;	0,0
550,5513916015625;	720,75;	0,0;	0,0
550,6201171875;	571,0;	0,0;	0,0
550,688720703125;	486,25;	0,0;	0,0
550,75732421875;	489,5;	0,0;	0,0
550,8259887695312;	485,25;	0,0;	0,0
550,89453125;	488,75;	0,0;	0,0
550,9630737304688;	522,5;	0,0;	0,0
551,0316772460938;	575,0;	0,0;	0,0
551,1002197265625;	696,75;	0,0;	0,0
551,1687622070312;	657,5;	0,0;	0,0
551,2373046875;	651,75;	0,0;	0,0
551,3057250976562;	754,25;	0,0;	0,0
551,374267578125;	651,0;	0,0;	0,0
551,4427490234375;	492,25;	0,0;	0,0
551,5111694335938;	499,75;	0,0;	0,0
551,5796508789062;	533,25;	0,0;	0,0
551,6480102539062;	481,0;	0,0;	0,0
551,7164916992188;	502,5;	0,0;	0,0
551,7849731445312;	477,5;	0,0;	0,0
551,8533325195312;	497,75;	0,0;	0,0
551,9216918945312;	477,0;	0,0;	0,0
551,9901123046875;	506,0;	0,0;	0,0
552,0584106445312;	504,75;	0,0;	0,0
552,1267700195312;	471,75;	0,0;	0,0
552,195068359375;	505,25;	0,0;	0,0
552,2633666992188;	494,5;	0,0;	0,0
552,3316650390625;	545,5;	0,0;	0,0
552,39990234375;	512,25;	0,0;	0,0
552,46826171875;	509,75;	0,0;	0,0
552,5364990234375;	506,5;	0,0;	0,0
552,6046752929688;	482,75;	0,0;	0,0
552,6729736328125;	492,75;	0,0;	0,0
552,7412109375;	500,0;	0,0;	0,0
552,809326171875;	496,25;	0,0;	0,0
552,8775634765625;	513,25;	0,0;	0,0
552,9457397460938;	543,25;	0,0;	0,0
553,0138549804688;	543,25;	0,0;	0,0
553,08203125;	544,5;	0,0;	0,0
553,150146484375;	517,5;	0,0;	0,0
553,2182006835938;	543,5;	0,0;	0,0
553,286376953125;	605,0;	0,0;	0,0
553,3544311523438;	774,0;	0,0;	0,0
553,4225463867188;	821,25;	0,0;	0,0
553,4906005859375;	629,25;	0,0;	0,0
553,55859375;	555,75;	0,0;	0,0
553,626708984375;	526,0;	0,0;	0,0
553,6947021484375;	570,5;	0,0;	0,0
553,7626953125;	556,5;	0,0;	0,0
553,8306884765625;	545,5;	0,0;	0,0
553,8986206054688;	559,75;	0,0;	0,0
553,9666137695312;	533,5;	0,0;	0,0
554,0346069335938;	560,75;	0,0;	0,0
554,1024780273438;	549,25;	0,0;	0,0
554,1704711914062;	623,75;	0,0;	0,0
554,2384033203125;	617,25;	0,0;	0,0
554,3062133789062;	584,25;	0,0;	0,0
554,3740844726562;	568,25;	0,0;	0,0
554,4419555664062;	537,5;	0,0;	0,0
554,509765625;	590,75;	0,0;	0,0
554,57763671875;	555,0;	0,0;	0,0
554,6454467773438;	547,0;	0,0;	0,0
554,7133178710938;	548,0;	0,0;	0,0
554,7810668945312;	527,25;	0,0;	0,0
554,8488159179688;	578,25;	0,0;	0,0
554,9166259765625;	521,0;	0,0;	0,0
554,9843139648438;	513,5;	0,0;	0,0
555,0521240234375;	527,0;	0,0;	0,0
555,119873046875;	536,5;	0,0;	0,0
555,1875;	511,0;	0,0;	0,0
555,2552490234375;	552,5;	0,0;	0,0
555,3229370117188;	609,25;	0,0;	0,0
555,390625;	567,5;	0,0;	0,0
555,458251953125;	506,75;	0,0;	0,0
555,52587890625;	532,5;	0,0;	0,0
555,593505859375;	512,25;	0,0;	0,0
555,6611328125;	515,5;	0,0;	0,0
555,7286987304688;	489,25;	0,0;	0,0
555,7963256835938;	521,75;	0,0;	0,0
555,8638916015625;	505,25;	0,0;	0,0
555,931396484375;	495,0;	0,0;	0,0
555,9989624023438;	492,25;	0,0;	0,0
556,0665283203125;	527,5;	0,0;	0,0
556,1339721679688;	539,25;	0,0;	0,0
556,2014770507812;	568,0;	0,0;	0,0
556,26904296875;	548,5;	0,0;	0,0
556,3364868164062;	575,5;	0,0;	0,0
556,4039306640625;	662,75;	0,0;	0,0
556,4713134765625;	556,0;	0,0;	0,0
556,538818359375;	541,5;	0,0;	0,0
556,6062622070312;	489,25;	0,0;	0,0
556,673583984375;	563,25;	0,0;	0,0
556,7410278320312;	653,25;	0,0;	0,0
556,8084716796875;	909,0;	0,0;	0,0
556,875732421875;	794,25;	0,0;	0,0
556,943115234375;	604,5;	0,0;	0,0
557,010498046875;	577,0;	0,0;	0,0
557,0776977539062;	826,0;	0,0;	0,0
557,1450805664062;	1173,5;	0,0;	0,0
557,2123413085938;	932,0;	0,0;	0,0
557,2796020507812;	572,25;	0,0;	0,0
557,346923828125;	509,0;	0,0;	0,0
557,4141235351562;	604,5;	0,0;	0,0
557,4813232421875;	673,25;	0,0;	0,0
557,5485229492188;	533,0;	0,0;	0,0
557,6157836914062;	453,5;	0,0;	0,0
557,6829833984375;	450,5;	0,0;	0,0
557,7501831054688;	459,75;	0,0;	0,0
557,8173217773438;	472,0;	0,0;	0,0
557,8844604492188;	461,0;	0,0;	0,0
557,9515991210938;	496,25;	0,0;	0,0
558,0187377929688;	609,75;	0,0;	0,0
558,0858764648438;	623,25;	0,0;	0,0
558,1528930664062;	537,5;	0,0;	0,0
558,219970703125;	509,0;	0,0;	0,0
558,2869873046875;	499,5;	0,0;	0,0
558,3540649414062;	578,75;	0,0;	0,0
558,421142578125;	706,0;	0,0;	0,0
558,4881591796875;	1333,75;	0,0;	0,0
558,55517578125;	1685,5;	0,0;	0,0
558,6221923828125;	1335,75;	0,0;	0,0
558,6891479492188;	1519,75;	0,0;	0,0
558,7561645507812;	1717,5;	0,0;	0,0
558,8230590820312;	1169,25;	0,0;	0,0
558,8900146484375;	703,25;	0,0;	0,0
558,9569702148438;	563,75;	0,0;	0,0
559,0238037109375;	489,75;	0,0;	0,0
559,0906982421875;	484,75;	0,0;	0,0
559,1576538085938;	541,0;	0,0;	0,0
559,2244262695312;	754,0;	0,0;	0,0
559,2913208007812;	1171,25;	0,0;	0,0
559,358154296875;	1020,25;	0,0;	0,0
559,4249877929688;	588,25;	0,0;	0,0
559,4918212890625;	472,0;	0,0;	0,0
559,5586547851562;	550,5;	0,0;	0,0
559,6253662109375;	769,0;	0,0;	0,0
559,692138671875;	1015,0;	0,0;	0,0
559,7589111328125;	894,0;	0,0;	0,0
559,8256225585938;	602,5;	0,0;	0,0
559,8923950195312;	529,75;	0,0;	0,0
559,9590454101562;	673,5;	0,0;	0,0
560,0257568359375;	648,5;	0,0;	0,0
560,0924682617188;	779,0;	0,0;	0,0
560,1591186523438;	842,75;	0,0;	0,0
560,225830078125;	634,75;	0,0;	0,0
560,29248046875;	488,25;	0,0;	0,0
560,3590698242188;	462,25;	0,0;	0,0
560,4256591796875;	450,5;	0,0;	0,0
560,4921875;	449,25;	0,0;	0,0
560,5587768554688;	401,25;	0,0;	0,0
560,6254272460938;	477,0;	0,0;	0,0
560,6919555664062;	443,0;	0,0;	0,0
560,7584838867188;	471,25;	0,0;	0,0
560,824951171875;	433,5;	0,0;	0,0
560,8914794921875;	442,5;	0,0;	0,0
560,9580688476562;	431,5;	0,0;	0,0
561,0245361328125;	464,0;	0,0;	0,0
561,0909423828125;	470,5;	0,0;	0,0
561,157470703125;	472,75;	0,0;	0,0
561,2238159179688;	570,25;	0,0;	0,0
561,2903442382812;	763,25;	0,0;	0,0
561,3567504882812;	1343,0;	0,0;	0,0
561,4231567382812;	2157,25;	0,0;	0,0
561,489501953125;	1566,75;	0,0;	0,0
561,5558471679688;	712,0;	0,0;	0,0
561,6222534179688;	569,5;	0,0;	0,0
561,6885986328125;	519,5;	0,0;	0,0
561,7548828125;	496,5;	0,0;	0,0
561,8211669921875;	472,25;	0,0;	0,0
561,8875122070312;	520,5;	0,0;	0,0
561,9537963867188;	469,75;	0,0;	0,0
562,0200805664062;	484,75;	0,0;	0,0
562,0863647460938;	461,25;	0,0;	0,0
562,152587890625;	479,5;	0,0;	0,0
562,2188110351562;	557,75;	0,0;	0,0
562,2849731445312;	685,25;	0,0;	0,0
562,3511962890625;	646,25;	0,0;	0,0
562,4174194335938;	569,0;	0,0;	0,0
562,4835205078125;	459,25;	0,0;	0,0
562,5496826171875;	476,75;	0,0;	0,0
562,6159057617188;	468,5;	0,0;	0,0
562,6820068359375;	456,5;	0,0;	0,0
562,748046875;	514,0;	0,0;	0,0
562,814208984375;	476,0;	0,0;	0,0
562,8803100585938;	498,75;	0,0;	0,0
562,9463500976562;	450,25;	0,0;	0,0
563,0123901367188;	478,75;	0,0;	0,0
563,0784301757812;	466,0;	0,0;	0,0
563,14453125;	503,5;	0,0;	0,0
563,21044921875;	503,25;	0,0;	0,0
563,2764892578125;	526,0;	0,0;	0,0
563,3424682617188;	498,75;	0,0;	0,0
563,408447265625;	508,5;	0,0;	0,0
563,4744262695312;	544,25;	0,0;	0,0
563,5404052734375;	527,0;	0,0;	0,0
563,6062622070312;	517,5;	0,0;	0,0
563,6722412109375;	540,75;	0,0;	0,0
563,7380981445312;	538,75;	0,0;	0,0
563,8040161132812;	482,0;	0,0;	0,0
563,869873046875;	501,0;	0,0;	0,0
563,9356689453125;	478,75;	0,0;	0,0
564,0015258789062;	502,25;	0,0;	0,0
564,0673217773438;	508,25;	0,0;	0,0
564,1331787109375;	487,0;	0,0;	0,0
564,1990356445312;	496,0;	0,0;	0,0
564,2647705078125;	600,25;	0,0;	0,0
564,3305053710938;	558,5;	0,0;	0,0
564,3963012695312;	495,5;	0,0;	0,0
564,4620361328125;	449,0;	0,0;	0,0
564,5277709960938;	491,0;	0,0;	0,0
564,593505859375;	477,0;	0,0;	0,0
564,6591796875;	489,25;	0,0;	0,0
564,7249145507812;	514,75;	0,0;	0,0
564,7904663085938;	515,5;	0,0;	0,0
564,856201171875;	512,0;	0,0;	0,0
564,9218139648438;	505,5;	0,0;	0,0
564,9874877929688;	464,0;	0,0;	0,0
565,0530395507812;	497,75;	0,0;	0,0
565,1187133789062;	480,25;	0,0;	0,0
565,1842651367188;	505,0;	0,0;	0,0
565,2498168945312;	492,25;	0,0;	0,0
565,3153686523438;	507,0;	0,0;	0,0
565,3809204101562;	565,75;	0,0;	0,0
565,4464721679688;	525,5;	0,0;	0,0
565,511962890625;	545,5;	0,0;	0,0
565,5774536132812;	537,0;	0,0;	0,0
565,6429443359375;	562,5;	0,0;	0,0
565,7083740234375;	711,75;	0,0;	0,0
565,7738647460938;	745,25;	0,0;	0,0
565,83935546875;	589,25;	0,0;	0,0
565,9047241210938;	522,5;	0,0;	0,0
565,9701538085938;	531,25;	0,0;	0,0
566,0355834960938;	613,25;	0,0;	0,0
566,1009521484375;	703,5;	0,0;	0,0
566,1663208007812;	663,0;	0,0;	0,0
566,2316284179688;	542,25;	0,0;	0,0
566,2969970703125;	526,5;	0,0;	0,0
566,3623657226562;	520,5;	0,0;	0,0
566,4276123046875;	501,25;	0,0;	0,0
566,4929809570312;	495,0;	0,0;	0,0
566,5582275390625;	506,0;	0,0;	0,0
566,6234741210938;	529,75;	0,0;	0,0
566,688720703125;	499,25;	0,0;	0,0
566,7540283203125;	477,5;	0,0;	0,0
566,8192138671875;	492,0;	0,0;	0,0
566,8843994140625;	500,0;	0,0;	0,0
566,9495849609375;	503,25;	0,0;	0,0
567,0147705078125;	523,0;	0,0;	0,0
567,0799560546875;	518,75;	0,0;	0,0
567,1451416015625;	476,5;	0,0;	0,0
567,2102661132812;	484,5;	0,0;	0,0
567,2753295898438;	513,0;	0,0;	0,0
567,3405151367188;	532,5;	0,0;	0,0
567,4055786132812;	549,75;	0,0;	0,0
567,4706420898438;	537,75;	0,0;	0,0
567,5357055664062;	515,75;	0,0;	0,0
567,600830078125;	499,5;	0,0;	0,0
567,6658325195312;	468,75;	0,0;	0,0
567,7308959960938;	536,75;	0,0;	0,0
567,7958374023438;	520,25;	0,0;	0,0
567,86083984375;	511,75;	0,0;	0,0
567,9258422851562;	524,25;	0,0;	0,0
567,9907836914062;	551,25;	0,0;	0,0
568,0557250976562;	665,25;	0,0;	0,0
568,1207275390625;	825,5;	0,0;	0,0
568,185546875;	839,25;	0,0;	0,0
568,25048828125;	712,0;	0,0;	0,0
568,3153686523438;	680,5;	0,0;	0,0
568,3802490234375;	666,0;	0,0;	0,0
568,4451293945312;	644,75;	0,0;	0,0
568,5100708007812;	709,0;	0,0;	0,0
568,5748291015625;	755,0;	0,0;	0,0
568,6396484375;	967,25;	0,0;	0,0
568,7044677734375;	1171,0;	0,0;	0,0
568,769287109375;	1029,75;	0,0;	0,0
568,8340454101562;	885,5;	0,0;	0,0
568,8987426757812;	756,0;	0,0;	0,0
568,9635009765625;	634,5;	0,0;	0,0
569,0282592773438;	620,5;	0,0;	0,0
569,0929565429688;	574,75;	0,0;	0,0
569,15771484375;	544,75;	0,0;	0,0
569,222412109375;	559,0;	0,0;	0,0
569,2870483398438;	537,75;	0,0;	0,0
569,3517456054688;	547,25;	0,0;	0,0
569,4163818359375;	479,75;	0,0;	0,0
569,4810180664062;	532,25;	0,0;	0,0
569,5455932617188;	519,0;	0,0;	0,0
569,6102294921875;	466,75;	0,0;	0,0
569,6748657226562;	522,5;	0,0;	0,0
569,7393188476562;	489,75;	0,0;	0,0
569,803955078125;	482,5;	0,0;	0,0
569,8685302734375;	507,0;	0,0;	0,0
569,9330444335938;	481,25;	0,0;	0,0
569,9974975585938;	539,75;	0,0;	0,0
570,0620727539062;	541,25;	0,0;	0,0
570,1265258789062;	519,75;	0,0;	0,0
570,1910400390625;	500,0;	0,0;	0,0
570,2554931640625;	489,0;	0,0;	0,0
570,3198852539062;	521,75;	0,0;	0,0
570,3843383789062;	535,5;	0,0;	0,0
570,44873046875;	588,75;	0,0;	0,0
570,51318359375;	575,0;	0,0;	0,0
570,5775756835938;	511,5;	0,0;	0,0
570,6419067382812;	474,25;	0,0;	0,0
570,706298828125;	520,75;	0,0;	0,0
570,7706298828125;	593,25;	0,0;	0,0
570,8349609375;	607,0;	0,0;	0,0
570,8992919921875;	528,25;	0,0;	0,0
570,963623046875;	519,5;	0,0;	0,0
571,02783203125;	492,75;	0,0;	0,0
571,0921020507812;	509,0;	0,0;	0,0
571,1563110351562;	462,0;	0,0;	0,0
571,2206420898438;	493,5;	0,0;	0,0
571,2848510742188;	499,25;	0,0;	0,0
571,3489990234375;	522,25;	0,0;	0,0
571,4132080078125;	539,5;	0,0;	0,0
571,4774169921875;	512,5;	0,0;	0,0
571,5415649414062;	489,25;	0,0;	0,0
571,6057739257812;	502,0;	0,0;	0,0
571,6698608398438;	499,5;	0,0;	0,0
571,7340087890625;	480,75;	0,0;	0,0
571,7981567382812;	471,25;	0,0;	0,0
571,8621826171875;	466,0;	0,0;	0,0
571,92626953125;	473,0;	0,0;	0,0
571,9904174804688;	455,75;	0,0;	0,0
572,0543823242188;	477,25;	0,0;	0,0
572,1184692382812;	477,0;	0,0;	0,0
572,1824951171875;	472,0;	0,0;	0,0
572,2464599609375;	453,5;	0,0;	0,0
572,3104858398438;	432,25;	0,0;	0,0
572,3744506835938;	481,0;	0,0;	0,0
572,4384155273438;	459,0;	0,0;	0,0
572,5023803710938;	453,5;	0,0;	0,0
572,5662841796875;	471,25;	0,0;	0,0
572,6301879882812;	455,5;	0,0;	0,0
572,6941528320312;	493,5;	0,0;	0,0
572,7579956054688;	472,5;	0,0;	0,0
572,8218383789062;	469,75;	0,0;	0,0
572,8856811523438;	449,0;	0,0;	0,0
572,9495849609375;	455,75;	0,0;	0,0
573,013427734375;	486,25;	0,0;	0,0
573,0772705078125;	487,75;	0,0;	0,0
573,1410522460938;	463,25;	0,0;	0,0
573,204833984375;	468,5;	0,0;	0,0
573,2686157226562;	427,25;	0,0;	0,0
573,3323364257812;	423,0;	0,0;	0,0
573,3961181640625;	420,25;	0,0;	0,0
573,4598388671875;	452,5;	0,0;	0,0
573,5235595703125;	428,75;	0,0;	0,0
573,5872192382812;	460,0;	0,0;	0,0
573,6509399414062;	437,0;	0,0;	0,0
573,714599609375;	421,5;	0,0;	0,0
573,7781982421875;	488,75;	0,0;	0,0
573,8418579101562;	489,25;	0,0;	0,0
573,905517578125;	463,0;	0,0;	0,0
573,9691162109375;	461,5;	0,0;	0,0
574,0327758789062;	437,25;	0,0;	0,0
574,0963745117188;	422,75;	0,0;	0,0
574,1598510742188;	458,0;	0,0;	0,0
574,2234497070312;	452,5;	0,0;	0,0
574,2869873046875;	462,25;	0,0;	0,0
574,3504638671875;	468,5;	0,0;	0,0
574,4140014648438;	443,25;	0,0;	0,0
574,4775390625;	426,0;	0,0;	0,0
574,5409545898438;	443,25;	0,0;	0,0
574,6044921875;	445,0;	0,0;	0,0
574,6679077148438;	449,25;	0,0;	0,0
574,7313232421875;	482,5;	0,0;	0,0
574,7947998046875;	438,0;	0,0;	0,0
574,858154296875;	428,0;	0,0;	0,0
574,9215698242188;	445,0;	0,0;	0,0
574,98486328125;	468,5;	0,0;	0,0
575,04833984375;	476,25;	0,0;	0,0
575,1116943359375;	510,5;	0,0;	0,0
575,1749877929688;	556,0;	0,0;	0,0
575,2383422851562;	522,5;	0,0;	0,0
575,3016357421875;	436,25;	0,0;	0,0
575,3648681640625;	439,5;	0,0;	0,0
575,42822265625;	425,75;	0,0;	0,0
575,491455078125;	427,0;	0,0;	0,0
575,5546264648438;	460,25;	0,0;	0,0
575,617919921875;	479,0;	0,0;	0,0
575,6810913085938;	421,25;	0,0;	0,0
575,7442626953125;	440,25;	0,0;	0,0
575,8074951171875;	477,0;	0,0;	0,0
575,8706665039062;	460,5;	0,0;	0,0
575,933837890625;	404,0;	0,0;	0,0
575,9969482421875;	510,5;	0,0;	0,0
576,06005859375;	524,5;	0,0;	0,0
576,1232299804688;	585,0;	0,0;	0,0
576,186279296875;	595,75;	0,0;	0,0
576,2493896484375;	577,5;	0,0;	0,0
576,3125;	482,25;	0,0;	0,0
576,37548828125;	447,25;	0,0;	0,0
576,4385375976562;	440,5;	0,0;	0,0
576,5015869140625;	451,25;	0,0;	0,0
576,5645751953125;	449,25;	0,0;	0,0
576,6275634765625;	448,0;	0,0;	0,0
576,6904907226562;	438,0;	0,0;	0,0
576,7534790039062;	441,25;	0,0;	0,0
576,8164672851562;	419,5;	0,0;	0,0
576,87939453125;	445,5;	0,0;	0,0
576,9423217773438;	454,0;	0,0;	0,0
577,0052490234375;	443,0;	0,0;	0,0
577,068115234375;	457,5;	0,0;	0,0
577,1309814453125;	481,75;	0,0;	0,0
577,1939086914062;	443,75;	0,0;	0,0
577,2567138671875;	499,0;	0,0;	0,0
577,3195190429688;	469,5;	0,0;	0,0
577,38232421875;	467,25;	0,0;	0,0
577,4451293945312;	431,75;	0,0;	0,0
577,5079956054688;	464,75;	0,0;	0,0
577,5706787109375;	452,5;	0,0;	0,0
577,6334838867188;	441,75;	0,0;	0,0
577,6962890625;	488,5;	0,0;	0,0
577,7589721679688;	446,25;	0,0;	0,0
577,8216552734375;	436,75;	0,0;	0,0
577,8843994140625;	474,75;	0,0;	0,0
577,947021484375;	474,75;	0,0;	0,0
578,009765625;	489,25;	0,0;	0,0
578,0723876953125;	504,5;	0,0;	0,0
578,135009765625;	493,75;	0,0;	0,0
578,1976928710938;	450,25;	0,0;	0,0
578,2601928710938;	473,25;	0,0;	0,0
578,3228149414062;	457,5;	0,0;	0,0
578,3854370117188;	450,25;	0,0;	0,0
578,447998046875;	453,75;	0,0;	0,0
578,5105590820312;	458,0;	0,0;	0,0
578,5731201171875;	478,0;	0,0;	0,0
578,6356201171875;	448,25;	0,0;	0,0
578,6981811523438;	410,5;	0,0;	0,0
578,7605590820312;	492,25;	0,0;	0,0
578,8231201171875;	488,0;	0,0;	0,0
578,8855590820312;	492,5;	0,0;	0,0
578,9479370117188;	505,0;	0,0;	0,0
579,0104370117188;	488,75;	0,0;	0,0
579,0728149414062;	517,5;	0,0;	0,0
579,1351928710938;	500,0;	0,0;	0,0
579,1976318359375;	469,75;	0,0;	0,0
579,260009765625;	462,5;	0,0;	0,0
579,3223266601562;	455,25;	0,0;	0,0
579,3847045898438;	461,25;	0,0;	0,0
579,447021484375;	461,5;	0,0;	0,0
579,5093383789062;	446,75;	0,0;	0,0
579,5716552734375;	485,75;	0,0;	0,0
579,6339111328125;	476,0;	0,0;	0,0
579,6962280273438;	480,5;	0,0;	0,0
579,7583618164062;	455,75;	0,0;	0,0
579,8206787109375;	472,25;	0,0;	0,0
579,8829345703125;	478,25;	0,0;	0,0
579,9451293945312;	483,5;	0,0;	0,0
580,0072631835938;	506,25;	0,0;	0,0
580,0695190429688;	519,25;	0,0;	0,0
580,131591796875;	499,5;	0,0;	0,0
580,1937866210938;	527,5;	0,0;	0,0
580,2559204101562;	493,75;	0,0;	0,0
580,3180541992188;	493,5;	0,0;	0,0
580,3801879882812;	479,0;	0,0;	0,0
580,4421997070312;	468,75;	0,0;	0,0
580,5043334960938;	494,75;	0,0;	0,0
580,56640625;	495,75;	0,0;	0,0
580,62841796875;	514,75;	0,0;	0,0
580,6904907226562;	502,5;	0,0;	0,0
580,7525024414062;	480,25;	0,0;	0,0
580,814453125;	495,75;	0,0;	0,0
580,87646484375;	475,25;	0,0;	0,0
580,9384765625;	461,25;	0,0;	0,0
581,0003662109375;	467,25;	0,0;	0,0
581,0623779296875;	506,5;	0,0;	0,0
581,124267578125;	495,75;	0,0;	0,0
581,1861572265625;	465,5;	0,0;	0,0
581,2481079101562;	466,0;	0,0;	0,0
581,3099365234375;	488,5;	0,0;	0,0
581,371826171875;	503,75;	0,0;	0,0
581,4336547851562;	501,75;	0,0;	0,0
581,4954833984375;	521,75;	0,0;	0,0
581,557373046875;	520,0;	0,0;	0,0
581,619140625;	506,25;	0,0;	0,0
581,680908203125;	495,75;	0,0;	0,0
581,7427368164062;	515,25;	0,0;	0,0
581,804443359375;	492,75;	0,0;	0,0
581,8662109375;	473,5;	0,0;	0,0
581,9279174804688;	475,0;	0,0;	0,0
581,9896850585938;	474,75;	0,0;	0,0
582,0513916015625;	535,5;	0,0;	0,0
582,113037109375;	486,25;	0,0;	0,0
582,1747436523438;	487,75;	0,0;	0,0
582,2363891601562;	495,0;	0,0;	0,0
582,2979736328125;	504,75;	0,0;	0,0
582,359619140625;	470,25;	0,0;	0,0
582,4212646484375;	487,0;	0,0;	0,0
582,4828491210938;	517,25;	0,0;	0,0
582,5444946289062;	518,0;	0,0;	0,0
582,6060180664062;	495,25;	0,0;	0,0
582,6675415039062;	548,5;	0,0;	0,0
582,7290649414062;	482,5;	0,0;	0,0
582,7905883789062;	496,0;	0,0;	0,0
582,8521118164062;	497,5;	0,0;	0,0
582,9136352539062;	509,0;	0,0;	0,0
582,9750366210938;	526,25;	0,0;	0,0
583,0365600585938;	516,75;	0,0;	0,0
583,0980224609375;	510,5;	0,0;	0,0
583,159423828125;	494,25;	0,0;	0,0
583,2208862304688;	474,5;	0,0;	0,0
583,2822875976562;	516,5;	0,0;	0,0
583,3436279296875;	484,75;	0,0;	0,0
583,405029296875;	511,75;	0,0;	0,0
583,46630859375;	489,5;	0,0;	0,0
583,5277099609375;	506,75;	0,0;	0,0
583,5890502929688;	541,25;	0,0;	0,0
583,6503295898438;	508,25;	0,0;	0,0
583,711669921875;	473,25;	0,0;	0,0
583,77294921875;	526,75;	0,0;	0,0
583,8341674804688;	499,25;	0,0;	0,0
583,8955078125;	502,5;	0,0;	0,0
583,9567260742188;	511,5;	0,0;	0,0
584,0179443359375;	505,0;	0,0;	0,0
584,0791015625;	513,25;	0,0;	0,0
584,1403198242188;	492,5;	0,0;	0,0
584,2014770507812;	485,75;	0,0;	0,0
584,2626342773438;	495,25;	0,0;	0,0
584,3237915039062;	504,5;	0,0;	0,0
584,3849487304688;	531,5;	0,0;	0,0
584,4459838867188;	557,25;	0,0;	0,0
584,5071411132812;	509,75;	0,0;	0,0
584,5682373046875;	510,5;	0,0;	0,0
584,6293334960938;	483,75;	0,0;	0,0
584,6903076171875;	517,25;	0,0;	0,0
584,7514038085938;	519,5;	0,0;	0,0
584,8123779296875;	507,75;	0,0;	0,0
584,8734130859375;	488,75;	0,0;	0,0
584,9344482421875;	517,25;	0,0;	0,0
584,9954223632812;	526,0;	0,0;	0,0
585,056396484375;	521,25;	0,0;	0,0
585,1173095703125;	534,25;	0,0;	0,0
585,1782836914062;	567,75;	0,0;	0,0
585,2391967773438;	557,0;	0,0;	0,0
585,3001098632812;	574,5;	0,0;	0,0
585,3609619140625;	546,5;	0,0;	0,0
585,4219360351562;	586,0;	0,0;	0,0
585,4827270507812;	604,75;	0,0;	0,0
585,5435791015625;	769,0;	0,0;	0,0
585,6044311523438;	1019,75;	0,0;	0,0
585,6652221679688;	888,75;	0,0;	0,0
585,72607421875;	721,5;	0,0;	0,0
585,7868041992188;	651,75;	0,0;	0,0
585,8475952148438;	617,5;	0,0;	0,0
585,9083251953125;	639,75;	0,0;	0,0
585,9690551757812;	653,25;	0,0;	0,0
586,02978515625;	584,25;	0,0;	0,0
586,090576171875;	612,75;	0,0;	0,0
586,1511840820312;	626,75;	0,0;	0,0
586,2118530273438;	571,25;	0,0;	0,0
586,2725830078125;	573,0;	0,0;	0,0
586,3331909179688;	614,0;	0,0;	0,0
586,393798828125;	593,25;	0,0;	0,0
586,4544067382812;	665,75;	0,0;	0,0
586,5150146484375;	751,0;	0,0;	0,0
586,57568359375;	649,5;	0,0;	0,0
586,6361694335938;	619,0;	0,0;	0,0
586,6967163085938;	606,5;	0,0;	0,0
586,7573852539062;	642,75;	0,0;	0,0
586,8178100585938;	611,5;	0,0;	0,0
586,8783569335938;	633,25;	0,0;	0,0
586,9388427734375;	652,0;	0,0;	0,0
586,9993896484375;	616,75;	0,0;	0,0
587,0598754882812;	677,25;	0,0;	0,0
587,1202392578125;	646,75;	0,0;	0,0
587,1807250976562;	644,5;	0,0;	0,0
587,2410888671875;	695,5;	0,0;	0,0
587,301513671875;	705,25;	0,0;	0,0
587,3619384765625;	741,0;	0,0;	0,0
587,4223022460938;	720,75;	0,0;	0,0
587,482666015625;	727,25;	0,0;	0,0
587,5430297851562;	750,75;	0,0;	0,0
587,6033325195312;	782,0;	0,0;	0,0
587,6636352539062;	752,0;	0,0;	0,0
587,7239990234375;	807,75;	0,0;	0,0
587,7841796875;	817,0;	0,0;	0,0
587,8445434570312;	886,75;	0,0;	0,0
587,90478515625;	945,0;	0,0;	0,0
587,9649658203125;	987,0;	0,0;	0,0
588,0252075195312;	958,25;	0,0;	0,0
588,08544921875;	1101,5;	0,0;	0,0
588,1456298828125;	1229,25;	0,0;	0,0
588,205810546875;	1311,0;	0,0;	0,0
588,2659301757812;	1549,0;	0,0;	0,0
588,3261108398438;	1721,5;	0,0;	0,0
588,3862915039062;	1922,75;	0,0;	0,0
588,4464111328125;	2364,0;	0,0;	0,0
588,5065307617188;	3247,5;	0,0;	0,0
588,5665893554688;	4364,0;	0,0;	0,0
588,6266479492188;	6522,25;	0,0;	0,0
588,6867065429688;	10184,25;	0,0;	0,0
588,7467041015625;	16383,75;	0,0;	0,0
588,8067626953125;	16383,75;	0,0;	0,0
588,8667602539062;	16383,75;	0,0;	0,0
588,9267578125;	16383,75;	0,0;	0,0
588,9867553710938;	13531,5;	0,0;	0,0
589,0467529296875;	7870,75;	0,0;	0,0
589,106689453125;	5629,75;	0,0;	0,0
589,1666259765625;	5135,0;	0,0;	0,0
589,2265625;	5578,0;	0,0;	0,0
589,2864379882812;	7760,75;	0,0;	0,0
589,3463745117188;	12925,25;	0,0;	0,0
589,4061889648438;	16383,75;	0,0;	0,0
589,466064453125;	16383,75;	0,0;	0,0
589,5259399414062;	16383,75;	0,0;	0,0
589,5857543945312;	9353,25;	0,0;	0,0
589,6455688476562;	5010,0;	0,0;	0,0
589,7053833007812;	3225,0;	0,0;	0,0
589,76513671875;	2543,75;	0,0;	0,0
589,824951171875;	2053,75;	0,0;	0,0
589,8847045898438;	1646,0;	0,0;	0,0
589,9443969726562;	1512,5;	0,0;	0,0
590,004150390625;	1354,0;	0,0;	0,0
590,0638427734375;	1243,25;	0,0;	0,0
590,12353515625;	1128,25;	0,0;	0,0
590,1832275390625;	1171,5;	0,0;	0,0
590,2428588867188;	1128,25;	0,0;	0,0
590,302490234375;	1010,5;	0,0;	0,0
590,3621215820312;	966,0;	0,0;	0,0
590,4217529296875;	926,0;	0,0;	0,0
590,4813842773438;	865,25;	0,0;	0,0
590,5409545898438;	819,0;	0,0;	0,0
590,6005249023438;	833,75;	0,0;	0,0
590,6600952148438;	820,5;	0,0;	0,0
590,7196044921875;	790,5;	0,0;	0,0
590,7791137695312;	764,5;	0,0;	0,0
590,8386840820312;	792,0;	0,0;	0,0
590,8981323242188;	820,75;	0,0;	0,0
590,9576416015625;	793,25;	0,0;	0,0
591,0170288085938;	788,25;	0,0;	0,0
591,0765380859375;	789,25;	0,0;	0,0
591,135986328125;	809,0;	0,0;	0,0
591,1953735351562;	850,75;	0,0;	0,0
591,2547607421875;	844,5;	0,0;	0,0
591,314208984375;	844,0;	0,0;	0,0
591,37353515625;	756,5;	0,0;	0,0
591,4329223632812;	713,0;	0,0;	0,0
591,4922485351562;	740,25;	0,0;	0,0
591,551513671875;	727,75;	0,0;	0,0
591,6109008789062;	737,0;	0,0;	0,0
591,670166015625;	705,25;	0,0;	0,0
591,7294921875;	738,5;	0,0;	0,0
591,7887573242188;	679,0;	0,0;	0,0
591,847900390625;	725,75;	0,0;	0,0
591,9071655273438;	690,0;	0,0;	0,0
591,9664306640625;	686,0;	0,0;	0,0
592,025634765625;	671,25;	0,0;	0,0
592,0847778320312;	696,5;	0,0;	0,0
592,1439819335938;	671,25;	0,0;	0,0
592,203125;	666,5;	0,0;	0,0
592,2622680664062;	633,0;	0,0;	0,0
592,3214111328125;	686,5;	0,0;	0,0
592,3804931640625;	650,25;	0,0;	0,0
592,4396362304688;	664,5;	0,0;	0,0
592,4987182617188;	694,25;	0,0;	0,0
592,5577392578125;	627,0;	0,0;	0,0
592,6167602539062;	657,75;	0,0;	0,0
592,6758422851562;	708,5;	0,0;	0,0
592,73486328125;	680,25;	0,0;	0,0
592,7938842773438;	718,5;	0,0;	0,0
592,8528442382812;	748,5;	0,0;	0,0
592,9118041992188;	726,75;	0,0;	0,0
592,9707641601562;	668,75;	0,0;	0,0
593,0297241210938;	660,5;	0,0;	0,0
593,0886840820312;	649,75;	0,0;	0,0
593,1475219726562;	664,25;	0,0;	0,0
593,2064819335938;	685,25;	0,0;	0,0
593,2652587890625;	658,75;	0,0;	0,0
593,32421875;	719,25;	0,0;	0,0
593,383056640625;	673,25;	0,0;	0,0
593,44189453125;	696,5;	0,0;	0,0
593,5006713867188;	611,0;	0,0;	0,0
593,5595703125;	623,25;	0,0;	0,0
593,6182861328125;	633,0;	0,0;	0,0
593,6770629882812;	612,0;	0,0;	0,0
593,73583984375;	597,25;	0,0;	0,0
593,7945556640625;	624,0;	0,0;	0,0
593,853271484375;	618,5;	0,0;	0,0
593,9119262695312;	588,5;	0,0;	0,0
593,970703125;	626,0;	0,0;	0,0
594,0293579101562;	610,5;	0,0;	0,0
594,0880126953125;	595,5;	0,0;	0,0
594,146728515625;	648,75;	0,0;	0,0
594,205322265625;	573,25;	0,0;	0,0
594,263916015625;	609,5;	0,0;	0,0
594,3225708007812;	534,75;	0,0;	0,0
594,3811645507812;	554,75;	0,0;	0,0
594,439697265625;	569,25;	0,0;	0,0
594,498291015625;	568,0;	0,0;	0,0
594,5567626953125;	575,75;	0,0;	0,0
594,6153564453125;	572,75;	0,0;	0,0
594,673828125;	587,75;	0,0;	0,0
594,7322998046875;	563,5;	0,0;	0,0
594,790771484375;	566,5;	0,0;	0,0
594,8492431640625;	581,75;	0,0;	0,0
594,90771484375;	587,25;	0,0;	0,0
594,9661254882812;	540,75;	0,0;	0,0
595,0245971679688;	597,75;	0,0;	0,0
595,0829467773438;	613,75;	0,0;	0,0
595,141357421875;	658,25;	0,0;	0,0
595,19970703125;	634,0;	0,0;	0,0
595,2581176757812;	575,75;	0,0;	0,0
595,3164672851562;	556,75;	0,0;	0,0
595,374755859375;	557,75;	0,0;	0,0
595,4330444335938;	579,0;	0,0;	0,0
595,4913330078125;	569,0;	0,0;	0,0
595,5496215820312;	535,75;	0,0;	0,0
595,60791015625;	579,75;	0,0;	0,0
595,6661987304688;	553,25;	0,0;	0,0
595,724365234375;	547,0;	0,0;	0,0
595,7825927734375;	548,0;	0,0;	0,0
595,8408203125;	549,75;	0,0;	0,0
595,8989868164062;	528,25;	0,0;	0,0
595,9572143554688;	523,0;	0,0;	0,0
596,0153198242188;	581,5;	0,0;	0,0
596,073486328125;	593,5;	0,0;	0,0
596,1315307617188;	590,75;	0,0;	0,0
596,1896362304688;	562,0;	0,0;	0,0
596,247802734375;	578,5;	0,0;	0,0
596,3058471679688;	597,75;	0,0;	0,0
596,3638916015625;	572,25;	0,0;	0,0
596,4219970703125;	634,25;	0,0;	0,0
596,47998046875;	669,0;	0,0;	0,0
596,5380249023438;	602,75;	0,0;	0,0
596,5960083007812;	596,25;	0,0;	0,0
596,6539916992188;	582,0;	0,0;	0,0
596,7119750976562;	573,0;	0,0;	0,0
596,7698364257812;	565,0;	0,0;	0,0
596,8278198242188;	565,75;	0,0;	0,0
596,8858032226562;	570,0;	0,0;	0,0
596,9436645507812;	542,5;	0,0;	0,0
597,0015869140625;	572,0;	0,0;	0,0
597,0595092773438;	544,0;	0,0;	0,0
597,1173095703125;	596,25;	0,0;	0,0
597,1751098632812;	543,5;	0,0;	0,0
597,2329711914062;	553,75;	0,0;	0,0
597,290771484375;	592,5;	0,0;	0,0
597,3486328125;	605,0;	0,0;	0,0
597,4063110351562;	644,0;	0,0;	0,0
597,4641723632812;	598,25;	0,0;	0,0
597,5219116210938;	576,75;	0,0;	0,0
597,57958984375;	597,75;	0,0;	0,0
597,6373291015625;	631,5;	0,0;	0,0
597,695068359375;	618,0;	0,0;	0,0
597,7527465820312;	627,0;	0,0;	0,0
597,8104248046875;	551,25;	0,0;	0,0
597,8681030273438;	549,75;	0,0;	0,0
597,9257202148438;	533,75;	0,0;	0,0
597,9833374023438;	574,0;	0,0;	0,0
598,0408935546875;	565,5;	0,0;	0,0
598,0985107421875;	587,0;	0,0;	0,0
598,1561279296875;	634,75;	0,0;	0,0
598,2136840820312;	658,25;	0,0;	0,0
598,271240234375;	662,0;	0,0;	0,0
598,3287353515625;	628,75;	0,0;	0,0
598,3862915039062;	621,0;	0,0;	0,0
598,44384765625;	590,25;	0,0;	0,0
598,5012817382812;	597,0;	0,0;	0,0
598,5587158203125;	577,0;	0,0;	0,0
598,6162109375;	583,25;	0,0;	0,0
598,673583984375;	547,0;	0,0;	0,0
598,7310791015625;	566,0;	0,0;	0,0
598,7885131835938;	558,0;	0,0;	0,0
598,8458251953125;	518,0;	0,0;	0,0
598,9032592773438;	561,0;	0,0;	0,0
598,9605712890625;	580,0;	0,0;	0,0
599,0179443359375;	524,0;	0,0;	0,0
599,0753173828125;	515,0;	0,0;	0,0
599,132568359375;	567,0;	0,0;	0,0
599,1898803710938;	500,0;	0,0;	0,0
599,2472534179688;	521,5;	0,0;	0,0
599,3043823242188;	519,5;	0,0;	0,0
599,3616943359375;	504,0;	0,0;	0,0
599,4189453125;	500,0;	0,0;	0,0
599,4761352539062;	559,0;	0,0;	0,0
599,5333251953125;	513,75;	0,0;	0,0
599,5905151367188;	544,75;	0,0;	0,0
599,647705078125;	552,5;	0,0;	0,0
599,7049560546875;	538,5;	0,0;	0,0
599,7620239257812;	575,0;	0,0;	0,0
599,8191528320312;	549,75;	0,0;	0,0
599,8762817382812;	546,75;	0,0;	0,0
599,933349609375;	511,75;	0,0;	0,0
599,9904174804688;	537,75;	0,0;	0,0
600,0475463867188;	552,5;	0,0;	0,0
600,1045532226562;	584,75;	0,0;	0,0
600,16162109375;	580,75;	0,0;	0,0
600,2186279296875;	615,75;	0,0;	0,0
600,2755737304688;	564,75;	0,0;	0,0
600,3326416015625;	559,75;	0,0;	0,0
600,3895874023438;	548,75;	0,0;	0,0
600,446533203125;	550,75;	0,0;	0,0
600,5034790039062;	572,25;	0,0;	0,0
600,5603637695312;	578,25;	0,0;	0,0
600,6172485351562;	576,75;	0,0;	0,0
600,6742553710938;	601,25;	0,0;	0,0
600,7310791015625;	591,25;	0,0;	0,0
600,7879028320312;	573,0;	0,0;	0,0
600,8447265625;	531,0;	0,0;	0,0
600,9015502929688;	520,25;	0,0;	0,0
600,9584350585938;	538,5;	0,0;	0,0
601,0151977539062;	501,0;	0,0;	0,0
601,0719604492188;	528,5;	0,0;	0,0
601,1287231445312;	537,5;	0,0;	0,0
601,185546875;	551,0;	0,0;	0,0
601,2422485351562;	502,75;	0,0;	0,0
601,2989501953125;	523,5;	0,0;	0,0
601,355712890625;	525,75;	0,0;	0,0
601,412353515625;	547,75;	0,0;	0,0
601,468994140625;	561,5;	0,0;	0,0
601,5256958007812;	535,75;	0,0;	0,0
601,5823364257812;	498,75;	0,0;	0,0
601,6389770507812;	513,75;	0,0;	0,0
601,695556640625;	525,75;	0,0;	0,0
601,7521362304688;	596,25;	0,0;	0,0
601,8087158203125;	627,25;	0,0;	0,0
601,8652954101562;	628,75;	0,0;	0,0
601,9218139648438;	618,75;	0,0;	0,0
601,9783935546875;	586,75;	0,0;	0,0
602,034912109375;	555,0;	0,0;	0,0
602,0913696289062;	617,5;	0,0;	0,0
602,1478271484375;	618,75;	0,0;	0,0
602,204345703125;	665,25;	0,0;	0,0
602,2608032226562;	687,75;	0,0;	0,0
602,3171997070312;	644,0;	0,0;	0,0
602,3736572265625;	541,75;	0,0;	0,0
602,4300537109375;	497,75;	0,0;	0,0
602,4864501953125;	526,5;	0,0;	0,0
602,5427856445312;	580,75;	0,0;	0,0
602,5991821289062;	538,0;	0,0;	0,0
602,655517578125;	536,75;	0,0;	0,0
602,7117919921875;	536,75;	0,0;	0,0
602,7681274414062;	492,75;	0,0;	0,0
602,824462890625;	543,75;	0,0;	0,0
602,8806762695312;	539,5;	0,0;	0,0
602,93701171875;	518,75;	0,0;	0,0
602,9932250976562;	501,25;	0,0;	0,0
603,0494384765625;	495,25;	0,0;	0,0
603,105712890625;	528,75;	0,0;	0,0
603,161865234375;	517,25;	0,0;	0,0
603,2180786132812;	517,25;	0,0;	0,0
603,2742309570312;	502,0;	0,0;	0,0
603,3303833007812;	508,5;	0,0;	0,0
603,3865356445312;	518,75;	0,0;	0,0
603,4426879882812;	511,5;	0,0;	0,0
603,498779296875;	506,5;	0,0;	0,0
603,5548706054688;	493,0;	0,0;	0,0
603,6109008789062;	509,25;	0,0;	0,0
603,6669311523438;	502,75;	0,0;	0,0
603,7230224609375;	513,25;	0,0;	0,0
603,7789916992188;	505,75;	0,0;	0,0
603,8350219726562;	516,0;	0,0;	0,0
603,8909912109375;	493,5;	0,0;	0,0
603,947021484375;	558,75;	0,0;	0,0
604,0030517578125;	518,0;	0,0;	0,0
604,0589599609375;	545,75;	0,0;	0,0
604,1148681640625;	531,5;	0,0;	0,0
604,1707763671875;	523,75;	0,0;	0,0
604,2266845703125;	530,25;	0,0;	0,0
604,2825317382812;	538,0;	0,0;	0,0
604,3385009765625;	534,75;	0,0;	0,0
604,394287109375;	491,75;	0,0;	0,0
604,4501342773438;	510,75;	0,0;	0,0
604,5059204101562;	484,0;	0,0;	0,0
604,5617065429688;	511,0;	0,0;	0,0
604,6175537109375;	501,25;	0,0;	0,0
604,67333984375;	532,25;	0,0;	0,0
604,7290649414062;	528,75;	0,0;	0,0
604,7847900390625;	541,0;	0,0;	0,0
604,8405151367188;	490,0;	0,0;	0,0
604,896240234375;	528,5;	0,0;	0,0
604,9519653320312;	507,5;	0,0;	0,0
605,007568359375;	536,25;	0,0;	0,0
605,0632934570312;	537,0;	0,0;	0,0
605,118896484375;	495,0;	0,0;	0,0
605,174560546875;	513,75;	0,0;	0,0
605,2301635742188;	497,75;	0,0;	0,0
605,2857666015625;	526,5;	0,0;	0,0
605,34130859375;	555,5;	0,0;	0,0
605,3969116210938;	551,0;	0,0;	0,0
605,4524536132812;	540,25;	0,0;	0,0
605,5079956054688;	564,25;	0,0;	0,0
605,5635375976562;	526,75;	0,0;	0,0
605,6190185546875;	538,25;	0,0;	0,0
605,674560546875;	504,0;	0,0;	0,0
605,7299194335938;	544,0;	0,0;	0,0
605,7854614257812;	511,0;	0,0;	0,0
605,8409423828125;	534,25;	0,0;	0,0
605,896240234375;	497,5;	0,0;	0,0
605,9517211914062;	495,0;	0,0;	0,0
606,0070190429688;	499,5;	0,0;	0,0
606,0625;	557,5;	0,0;	0,0
606,1178588867188;	537,5;	0,0;	0,0
606,1732177734375;	519,25;	0,0;	0,0
606,228515625;	541,5;	0,0;	0,0
606,2838745117188;	567,25;	0,0;	0,0
606,339111328125;	635,25;	0,0;	0,0
606,3944091796875;	695,25;	0,0;	0,0
606,44970703125;	665,0;	0,0;	0,0
606,5048828125;	567,25;	0,0;	0,0
606,5601806640625;	534,5;	0,0;	0,0
606,6153564453125;	473,0;	0,0;	0,0
606,6705322265625;	486,0;	0,0;	0,0
606,7257690429688;	494,0;	0,0;	0,0
606,781005859375;	477,0;	0,0;	0,0
606,8360595703125;	486,75;	0,0;	0,0
606,8912353515625;	477,5;	0,0;	0,0
606,9463500976562;	484,0;	0,0;	0,0
607,0014038085938;	491,5;	0,0;	0,0
607,0565795898438;	475,5;	0,0;	0,0
607,1116333007812;	450,25;	0,0;	0,0
607,1666870117188;	483,75;	0,0;	0,0
607,2216796875;	511,0;	0,0;	0,0
607,2767333984375;	477,75;	0,0;	0,0
607,331787109375;	477,25;	0,0;	0,0
607,38671875;	492,0;	0,0;	0,0
607,4417114257812;	478,75;	0,0;	0,0
607,4967041015625;	462,0;	0,0;	0,0
607,5515747070312;	500,75;	0,0;	0,0
607,6065673828125;	516,0;	0,0;	0,0
607,6615600585938;	534,5;	0,0;	0,0
607,7163696289062;	511,75;	0,0;	0,0
607,771240234375;	495,0;	0,0;	0,0
607,8261108398438;	511,75;	0,0;	0,0
607,8809814453125;	500,5;	0,0;	0,0
607,935791015625;	491,25;	0,0;	0,0
607,9906005859375;	482,75;	0,0;	0,0
608,0454711914062;	468,0;	0,0;	0,0
608,1001586914062;	508,25;	0,0;	0,0
608,1549682617188;	483,75;	0,0;	0,0
608,2097778320312;	498,5;	0,0;	0,0
608,2645263671875;	500,75;	0,0;	0,0
608,3191528320312;	511,5;	0,0;	0,0
608,3739013671875;	526,5;	0,0;	0,0
608,4285888671875;	502,25;	0,0;	0,0
608,4832153320312;	493,25;	0,0;	0,0
608,5379638671875;	482,25;	0,0;	0,0
608,5925903320312;	477,75;	0,0;	0,0
608,647216796875;	511,75;	0,0;	0,0
608,7017822265625;	479,5;	0,0;	0,0
608,7564086914062;	519,0;	0,0;	0,0
608,8109741210938;	500,0;	0,0;	0,0
608,8656005859375;	481,25;	0,0;	0,0
608,9201049804688;	501,75;	0,0;	0,0
608,974609375;	502,75;	0,0;	0,0
609,0291137695312;	524,5;	0,0;	0,0
609,0836181640625;	490,5;	0,0;	0,0
609,1381225585938;	470,5;	0,0;	0,0
609,1925659179688;	511,75;	0,0;	0,0
609,2470092773438;	486,25;	0,0;	0,0
609,3014526367188;	520,75;	0,0;	0,0
609,3558349609375;	514,75;	0,0;	0,0
609,4102783203125;	536,25;	0,0;	0,0
609,4646606445312;	545,25;	0,0;	0,0
609,51904296875;	558,5;	0,0;	0,0
609,5734252929688;	536,75;	0,0;	0,0
609,627685546875;	534,25;	0,0;	0,0
609,6820678710938;	544,0;	0,0;	0,0
609,7363891601562;	525,0;	0,0;	0,0
609,7906494140625;	498,25;	0,0;	0,0
609,844970703125;	490,25;	0,0;	0,0
609,899169921875;	573,0;	0,0;	0,0
609,953369140625;	576,0;	0,0;	0,0
610,0076293945312;	684,0;	0,0;	0,0
610,0618286132812;	921,0;	0,0;	0,0
610,1160888671875;	1206,0;	0,0;	0,0
610,170166015625;	1513,0;	0,0;	0,0
610,224365234375;	1358,0;	0,0;	0,0
610,2785034179688;	977,5;	0,0;	0,0
610,3327026367188;	681,5;	0,0;	0,0
610,3867797851562;	538,5;	0,0;	0,0
610,4408569335938;	525,0;	0,0;	0,0
610,4949340820312;	480,5;	0,0;	0,0
610,549072265625;	528,75;	0,0;	0,0
610,6030883789062;	518,75;	0,0;	0,0
610,6571044921875;	494,25;	0,0;	0,0
610,7111206054688;	535,5;	0,0;	0,0
610,7650756835938;	517,25;	0,0;	0,0
610,819091796875;	507,75;	0,0;	0,0
610,8731079101562;	490,25;	0,0;	0,0
610,9270629882812;	496,0;	0,0;	0,0
610,98095703125;	531,75;	0,0;	0,0
611,034912109375;	499,5;	0,0;	0,0
611,0887451171875;	520,75;	0,0;	0,0
611,1427001953125;	542,5;	0,0;	0,0
611,1965942382812;	495,5;	0,0;	0,0
611,2503662109375;	496,75;	0,0;	0,0
611,30419921875;	531,75;	0,0;	0,0
611,3580322265625;	490,75;	0,0;	0,0
611,411865234375;	472,75;	0,0;	0,0
611,4656982421875;	507,25;	0,0;	0,0
611,5194702148438;	501,25;	0,0;	0,0
611,5731811523438;	520,25;	0,0;	0,0
611,626953125;	482,25;	0,0;	0,0
611,6806640625;	511,75;	0,0;	0,0
611,734375;	522,5;	0,0;	0,0
611,7880859375;	521,0;	0,0;	0,0
611,8417358398438;	542,0;	0,0;	0,0
611,8953857421875;	614,5;	0,0;	0,0
611,9490356445312;	712,25;	0,0;	0,0
612,002685546875;	1029,25;	0,0;	0,0
612,0562744140625;	1460,0;	0,0;	0,0
612,1099243164062;	1395,5;	0,0;	0,0
612,1635131835938;	976,75;	0,0;	0,0
612,2171020507812;	658,0;	0,0;	0,0
612,2705688476562;	530,0;	0,0;	0,0
612,3241577148438;	524,5;	0,0;	0,0
612,3776245117188;	560,75;	0,0;	0,0
612,4310913085938;	552,75;	0,0;	0,0
612,484619140625;	542,5;	0,0;	0,0
612,5380859375;	547,5;	0,0;	0,0
612,591552734375;	506,75;	0,0;	0,0
612,64501953125;	548,25;	0,0;	0,0
612,6983642578125;	536,25;	0,0;	0,0
612,7518310546875;	518,25;	0,0;	0,0
612,80517578125;	525,75;	0,0;	0,0
612,8585205078125;	521,25;	0,0;	0,0
612,9119262695312;	561,0;	0,0;	0,0
612,9652709960938;	536,5;	0,0;	0,0
613,0185546875;	486,0;	0,0;	0,0
613,0718383789062;	498,75;	0,0;	0,0
613,1251220703125;	495,5;	0,0;	0,0
613,1784057617188;	532,5;	0,0;	0,0
613,2317504882812;	475,25;	0,0;	0,0
613,2849731445312;	494,0;	0,0;	0,0
613,338134765625;	524,25;	0,0;	0,0
613,391357421875;	602,75;	0,0;	0,0
613,4445190429688;	692,25;	0,0;	0,0
613,4977416992188;	853,5;	0,0;	0,0
613,5509033203125;	904,0;	0,0;	0,0
613,6040649414062;	876,0;	0,0;	0,0
613,6572265625;	759,75;	0,0;	0,0
613,7102661132812;	599,5;	0,0;	0,0
613,7633666992188;	509,75;	0,0;	0,0
613,8164672851562;	513,0;	0,0;	0,0
613,8695068359375;	502,0;	0,0;	0,0
613,922607421875;	647,25;	0,0;	0,0
613,9755859375;	668,25;	0,0;	0,0
614,028564453125;	715,75;	0,0;	0,0
614,0816040039062;	609,5;	0,0;	0,0
614,1346435546875;	594,5;	0,0;	0,0
614,1875610351562;	516,5;	0,0;	0,0
614,2405395507812;	515,0;	0,0;	0,0
614,2933959960938;	548,75;	0,0;	0,0
614,3463745117188;	507,25;	0,0;	0,0
614,3992919921875;	508,25;	0,0;	0,0
614,4521484375;	525,25;	0,0;	0,0
614,5050048828125;	479,0;	0,0;	0,0
614,5578002929688;	526,25;	0,0;	0,0
614,6106567382812;	553,5;	0,0;	0,0
614,6635131835938;	516,0;	0,0;	0,0
614,7163696289062;	531,0;	0,0;	0,0
614,7691040039062;	555,5;	0,0;	0,0
614,8218994140625;	556,5;	0,0;	0,0
614,8746337890625;	552,25;	0,0;	0,0
614,9273681640625;	553,0;	0,0;	0,0
614,9801025390625;	565,0;	0,0;	0,0
615,0327758789062;	530,25;	0,0;	0,0
615,0855102539062;	542,25;	0,0;	0,0
615,1381225585938;	551,5;	0,0;	0,0
615,1908569335938;	564,0;	0,0;	0,0
615,2434692382812;	599,0;	0,0;	0,0
615,2960815429688;	608,0;	0,0;	0,0
615,3486938476562;	640,5;	0,0;	0,0
615,4012451171875;	566,25;	0,0;	0,0
615,453857421875;	570,5;	0,0;	0,0
615,5064697265625;	604,0;	0,0;	0,0
615,5589599609375;	628,5;	0,0;	0,0
615,6114501953125;	551,25;	0,0;	0,0
615,6640014648438;	602,5;	0,0;	0,0
615,7164306640625;	592,75;	0,0;	0,0
615,7689819335938;	640,0;	0,0;	0,0
615,8214111328125;	710,75;	0,0;	0,0
615,8738403320312;	777,5;	0,0;	0,0
615,9263305664062;	958,75;	0,0;	0,0
615,9786987304688;	1252,25;	0,0;	0,0
616,0310668945312;	1810,5;	0,0;	0,0
616,08349609375;	2155,25;	0,0;	0,0
616,1358642578125;	1586,25;	0,0;	0,0
616,1881713867188;	963,75;	0,0;	0,0
616,2405395507812;	726,5;	0,0;	0,0
616,2928466796875;	672,25;	0,0;	0,0
616,3450927734375;	641,5;	0,0;	0,0
616,3974609375;	626,5;	0,0;	0,0
616,4496459960938;	607,25;	0,0;	0,0
616,501953125;	649,25;	0,0;	0,0
616,5540771484375;	573,5;	0,0;	0,0
616,6063842773438;	624,25;	0,0;	0,0
616,6585693359375;	646,25;	0,0;	0,0
616,7107543945312;	710,0;	0,0;	0,0
616,7628784179688;	798,0;	0,0;	0,0
616,8150634765625;	828,25;	0,0;	0,0
616,8671264648438;	754,5;	0,0;	0,0
616,9193115234375;	685,5;	0,0;	0,0
616,971435546875;	628,5;	0,0;	0,0
617,0234985351562;	655,5;	0,0;	0,0
617,0756225585938;	606,0;	0,0;	0,0
617,1275634765625;	617,25;	0,0;	0,0
617,1796875;	648,75;	0,0;	0,0
617,231689453125;	564,25;	0,0;	0,0
617,28369140625;	597,75;	0,0;	0,0
617,3356323242188;	590,5;	0,0;	0,0
617,3876953125;	567,0;	0,0;	0,0
617,4395751953125;	610,75;	0,0;	0,0
617,4915161132812;	582,5;	0,0;	0,0
617,54345703125;	604,75;	0,0;	0,0
617,5953369140625;	583,75;	0,0;	0,0
617,6472778320312;	635,0;	0,0;	0,0
617,6990966796875;	622,75;	0,0;	0,0
617,7509765625;	608,75;	0,0;	0,0
617,8027954101562;	588,75;	0,0;	0,0
617,8546142578125;	589,25;	0,0;	0,0
617,906494140625;	641,5;	0,0;	0,0
617,9581909179688;	642,75;	0,0;	0,0
618,010009765625;	640,25;	0,0;	0,0
618,061767578125;	642,25;	0,0;	0,0
618,113525390625;	641,0;	0,0;	0,0
618,1652221679688;	592,75;	0,0;	0,0
618,2169799804688;	567,25;	0,0;	0,0
618,2686157226562;	594,0;	0,0;	0,0
618,3203125;	589,5;	0,0;	0,0
618,3720092773438;	584,5;	0,0;	0,0
618,423583984375;	571,25;	0,0;	0,0
618,4752197265625;	563,5;	0,0;	0,0
618,5267944335938;	601,5;	0,0;	0,0
618,5784301757812;	596,75;	0,0;	0,0
618,6300048828125;	592,75;	0,0;	0,0
618,681640625;	606,0;	0,0;	0,0
618,7330932617188;	628,75;	0,0;	0,0
618,7846069335938;	646,25;	0,0;	0,0
618,8361206054688;	593,75;	0,0;	0,0
618,8876342773438;	612,75;	0,0;	0,0
618,9391479492188;	727,0;	0,0;	0,0
618,9905395507812;	785,25;	0,0;	0,0
619,0419921875;	807,5;	0,0;	0,0
619,0933837890625;	684,75;	0,0;	0,0
619,1448364257812;	608,75;	0,0;	0,0
619,1962890625;	546,0;	0,0;	0,0
619,2476196289062;	600,0;	0,0;	0,0
619,2990112304688;	592,25;	0,0;	0,0
619,3504028320312;	564,75;	0,0;	0,0
619,4016723632812;	590,75;	0,0;	0,0
619,4530029296875;	558,5;	0,0;	0,0
619,5043334960938;	601,0;	0,0;	0,0
619,5555419921875;	573,5;	0,0;	0,0
619,6068115234375;	552,75;	0,0;	0,0
619,6580810546875;	586,75;	0,0;	0,0
619,7092895507812;	588,25;	0,0;	0,0
619,7605590820312;	650,5;	0,0;	0,0
619,8117065429688;	594,25;	0,0;	0,0
619,8628540039062;	613,75;	0,0;	0,0
619,9140014648438;	592,25;	0,0;	0,0
619,9652099609375;	597,0;	0,0;	0,0
620,0162963867188;	592,75;	0,0;	0,0
620,0675048828125;	592,5;	0,0;	0,0
620,1185913085938;	594,25;	0,0;	0,0
620,169677734375;	606,5;	0,0;	0,0
620,2206420898438;	576,0;	0,0;	0,0
620,2717895507812;	629,25;	0,0;	0,0
620,3228149414062;	594,25;	0,0;	0,0
620,373779296875;	622,0;	0,0;	0,0
620,4248046875;	619,25;	0,0;	0,0
620,4757690429688;	629,0;	0,0;	0,0
620,5267333984375;	640,0;	0,0;	0,0
620,5777587890625;	596,0;	0,0;	0,0
620,628662109375;	573,0;	0,0;	0,0
620,6795654296875;	553,5;	0,0;	0,0
620,73046875;	603,5;	0,0;	0,0
620,7813110351562;	581,0;	0,0;	0,0
620,8322143554688;	607,0;	0,0;	0,0
620,883056640625;	610,5;	0,0;	0,0
620,933837890625;	580,25;	0,0;	0,0
620,9846801757812;	580,25;	0,0;	0,0
621,0354614257812;	565,0;	0,0;	0,0
621,0863037109375;	556,5;	0,0;	0,0
621,1370849609375;	602,75;	0,0;	0,0
621,1878662109375;	605,0;	0,0;	0,0
621,2385864257812;	597,5;	0,0;	0,0
621,2892456054688;	618,5;	0,0;	0,0
621,3399047851562;	608,25;	0,0;	0,0
621,3906860351562;	602,75;	0,0;	0,0
621,4413452148438;	613,0;	0,0;	0,0
621,491943359375;	545,75;	0,0;	0,0
621,5426025390625;	575,75;	0,0;	0,0
621,5931396484375;	578,5;	0,0;	0,0
621,643798828125;	539,75;	0,0;	0,0
621,6943969726562;	630,5;	0,0;	0,0
621,7449951171875;	660,75;	0,0;	0,0
621,7955322265625;	661,25;	0,0;	0,0
621,8460693359375;	599,25;	0,0;	0,0
621,8965454101562;	636,75;	0,0;	0,0
621,9470825195312;	607,25;	0,0;	0,0
621,9976196289062;	633,75;	0,0;	0,0
622,0480346679688;	575,5;	0,0;	0,0
622,0985107421875;	587,5;	0,0;	0,0
622,1488647460938;	610,25;	0,0;	0,0
622,1993408203125;	590,0;	0,0;	0,0
622,249755859375;	609,25;	0,0;	0,0
622,3001708984375;	562,75;	0,0;	0,0
622,3505249023438;	574,75;	0,0;	0,0
622,4008178710938;	604,5;	0,0;	0,0
622,451171875;	558,5;	0,0;	0,0
622,5015258789062;	577,5;	0,0;	0,0
622,5518798828125;	551,25;	0,0;	0,0
622,6021118164062;	606,25;	0,0;	0,0
622,6524047851562;	590,75;	0,0;	0,0
622,7025756835938;	609,25;	0,0;	0,0
622,7528686523438;	653,75;	0,0;	0,0
622,8031616210938;	682,5;	0,0;	0,0
622,853271484375;	737,5;	0,0;	0,0
622,9034423828125;	874,25;	0,0;	0,0
622,95361328125;	876,0;	0,0;	0,0
623,0037841796875;	712,75;	0,0;	0,0
623,053955078125;	616,75;	0,0;	0,0
623,1040649414062;	605,25;	0,0;	0,0
623,1541137695312;	625,5;	0,0;	0,0
623,2042236328125;	577,0;	0,0;	0,0
623,2542724609375;	599,25;	0,0;	0,0
623,3043823242188;	607,25;	0,0;	0,0
623,3544311523438;	582,0;	0,0;	0,0
623,4044189453125;	581,25;	0,0;	0,0
623,4544677734375;	576,0;	0,0;	0,0
623,50439453125;	573,0;	0,0;	0,0
623,5543823242188;	608,5;	0,0;	0,0
623,6043701171875;	556,5;	0,0;	0,0
623,6543579101562;	561,0;	0,0;	0,0
623,7042236328125;	560,0;	0,0;	0,0
623,754150390625;	555,5;	0,0;	0,0
623,803955078125;	557,75;	0,0;	0,0
623,8538818359375;	571,25;	0,0;	0,0
623,9037475585938;	579,5;	0,0;	0,0
623,9535522460938;	581,0;	0,0;	0,0
624,0033569335938;	558,25;	0,0;	0,0
624,0531616210938;	547,25;	0,0;	0,0
624,1029663085938;	554,5;	0,0;	0,0
624,1527709960938;	571,25;	0,0;	0,0
624,2025756835938;	596,5;	0,0;	0,0
624,2522583007812;	593,5;	0,0;	0,0
624,3019409179688;	622,0;	0,0;	0,0
624,3516235351562;	592,75;	0,0;	0,0
624,4013671875;	674,0;	0,0;	0,0
624,4510498046875;	647,75;	0,0;	0,0
624,5006713867188;	693,75;	0,0;	0,0
624,5503540039062;	612,5;	0,0;	0,0
624,599853515625;	607,75;	0,0;	0,0
624,6495361328125;	570,0;	0,0;	0,0
624,6991577148438;	527,25;	0,0;	0,0
624,7486572265625;	529,75;	0,0;	0,0
624,7982177734375;	537,25;	0,0;	0,0
624,8477172851562;	514,75;	0,0;	0,0
624,8972778320312;	584,0;	0,0;	0,0
624,94677734375;	558,5;	0,0;	0,0
624,9962768554688;	592,75;	0,0;	0,0
625,0457763671875;	618,0;	0,0;	0,0
625,09521484375;	703,75;	0,0;	0,0
625,1446533203125;	680,0;	0,0;	0,0
625,194091796875;	597,25;	0,0;	0,0
625,2434692382812;	604,75;	0,0;	0,0
625,2928466796875;	603,0;	0,0;	0,0
625,3422241210938;	601,75;	0,0;	0,0
625,3914794921875;	549,5;	0,0;	0,0
625,44091796875;	560,5;	0,0;	0,0
625,490234375;	600,25;	0,0;	0,0
625,53955078125;	621,0;	0,0;	0,0
625,5888061523438;	625,75;	0,0;	0,0
625,6380615234375;	740,25;	0,0;	0,0
625,687255859375;	770,75;	0,0;	0,0
625,736572265625;	802,0;	0,0;	0,0
625,7858276367188;	0,0;	0,0;	0,0
