-0.5	1.5
Integration time [ms]:	1.05
Averaging Nr. [scans]:1
Smoothing Nr. [pixels]:0
Data measured with spectrometer [name]:b'1703273U8'
Wave	;Sample	;Dark	;Reference	;Scope	
[nm]	;[counts]	;[counts]	;[counts]	
 
250,49510192871094;	159,25;	0,0;	0,0
250,5340576171875;	162,5;	0,0;	0,0
250,572998046875;	162,25;	0,0;	0,0
250,61192321777344;	147,25;	0,0;	0,0
250,65086364746094;	152,0;	0,0;	0,0
250,68978881835938;	143,0;	0,0;	0,0
250,7287139892578;	177,75;	0,0;	0,0
250,7676239013672;	161,5;	0,0;	0,0
250,80653381347656;	180,0;	0,0;	0,0
250,8454132080078;	181,0;	0,0;	0,0
250,8843231201172;	177,0;	0,0;	0,0
250,92320251464844;	158,25;	0,0;	0,0
250,96209716796875;	179,25;	0,0;	0,0
251,00096130371094;	200,0;	0,0;	0,0
251,0398406982422;	306,5;	0,0;	0,0
251,0786895751953;	284,0;	0,0;	0,0
251,1175537109375;	302,0;	0,0;	0,0
251,15640258789062;	355,0;	0,0;	0,0
251,19525146484375;	247,0;	0,0;	0,0
251,2340850830078;	234,75;	0,0;	0,0
251,2729034423828;	206,5;	0,0;	0,0
251,31173706054688;	187,5;	0,0;	0,0
251,35055541992188;	203,0;	0,0;	0,0
251,38937377929688;	294,5;	0,0;	0,0
251,4281768798828;	252,75;	0,0;	0,0
251,46697998046875;	238,75;	0,0;	0,0
251,50576782226562;	196,25;	0,0;	0,0
251,5445556640625;	259,5;	0,0;	0,0
251,58334350585938;	303,25;	0,0;	0,0
251,6221160888672;	255,25;	0,0;	0,0
251,660888671875;	303,75;	0,0;	0,0
251,6996612548828;	320,0;	0,0;	0,0
251,7384033203125;	425,25;	0,0;	0,0
251,7771453857422;	559,5;	0,0;	0,0
251,81590270996094;	344,5;	0,0;	0,0
251,85462951660156;	364,75;	0,0;	0,0
251,8933563232422;	331,0;	0,0;	0,0
251,93206787109375;	268,5;	0,0;	0,0
251,97079467773438;	219,75;	0,0;	0,0
252,00950622558594;	234,25;	0,0;	0,0
252,0482177734375;	300,75;	0,0;	0,0
252,0869140625;	313,0;	0,0;	0,0
252,1256103515625;	399,25;	0,0;	0,0
252,16429138183594;	415,25;	0,0;	0,0
252,20297241210938;	685,0;	0,0;	0,0
252,2416534423828;	1033,75;	0,0;	0,0
252,2803192138672;	721,5;	0,0;	0,0
252,31898498535156;	546,0;	0,0;	0,0
252,35765075683594;	525,0;	0,0;	0,0
252,3962860107422;	527,5;	0,0;	0,0
252,4349365234375;	474,25;	0,0;	0,0
252,4735565185547;	761,75;	0,0;	0,0
252,51219177246094;	804,5;	0,0;	0,0
252,5508270263672;	568,5;	0,0;	0,0
252,58944702148438;	720,75;	0,0;	0,0
252,62803649902344;	490,5;	0,0;	0,0
252,66665649414062;	625,25;	0,0;	0,0
252,70526123046875;	800,25;	0,0;	0,0
252,7438507080078;	502,25;	0,0;	0,0
252,78244018554688;	355,75;	0,0;	0,0
252,8209991455078;	487,75;	0,0;	0,0
252,8595733642578;	828,5;	0,0;	0,0
252,8981475830078;	1125,5;	0,0;	0,0
252,93670654296875;	790,0;	0,0;	0,0
252,97528076171875;	438,75;	0,0;	0,0
253,01382446289062;	324,25;	0,0;	0,0
253,05235290527344;	304,75;	0,0;	0,0
253,09088134765625;	255,25;	0,0;	0,0
253,12942504882812;	253,0;	0,0;	0,0
253,16795349121094;	259,75;	0,0;	0,0
253,2064666748047;	297,0;	0,0;	0,0
253,24497985839844;	334,75;	0,0;	0,0
253,28347778320312;	521,5;	0,0;	0,0
253,32196044921875;	845,0;	0,0;	0,0
253,36045837402344;	640,75;	0,0;	0,0
253,39895629882812;	611,0;	0,0;	0,0
253,43743896484375;	467,75;	0,0;	0,0
253,4759063720703;	518,75;	0,0;	0,0
253,5143585205078;	678,0;	0,0;	0,0
253,55282592773438;	510,25;	0,0;	0,0
253,59127807617188;	578,0;	0,0;	0,0
253,62974548339844;	1049,25;	0,0;	0,0
253,66818237304688;	874,25;	0,0;	0,0
253,7065887451172;	534,0;	0,0;	0,0
253,74502563476562;	471,5;	0,0;	0,0
253,78346252441406;	644,0;	0,0;	0,0
253,82188415527344;	1057,5;	0,0;	0,0
253,8602752685547;	1288,0;	0,0;	0,0
253,89869689941406;	538,0;	0,0;	0,0
253,93707275390625;	337,25;	0,0;	0,0
253,9754638671875;	386,5;	0,0;	0,0
254,01385498046875;	568,75;	0,0;	0,0
254,05223083496094;	741,5;	0,0;	0,0
254,0906219482422;	551,0;	0,0;	0,0
254,1289520263672;	528,5;	0,0;	0,0
254,16732788085938;	577,75;	0,0;	0,0
254,2056884765625;	407,75;	0,0;	0,0
254,2440185546875;	383,25;	0,0;	0,0
254,28236389160156;	557,0;	0,0;	0,0
254,32070922851562;	611,75;	0,0;	0,0
254,3590087890625;	568,75;	0,0;	0,0
254,3973388671875;	399,25;	0,0;	0,0
254,4356689453125;	454,0;	0,0;	0,0
254,47396850585938;	558,5;	0,0;	0,0
254,5122833251953;	494,75;	0,0;	0,0
254,55056762695312;	611,75;	0,0;	0,0
254,58885192871094;	631,0;	0,0;	0,0
254,62713623046875;	534,5;	0,0;	0,0
254,6654052734375;	417,25;	0,0;	0,0
254,7036895751953;	328,25;	0,0;	0,0
254,741943359375;	322,75;	0,0;	0,0
254,7801971435547;	442,0;	0,0;	0,0
254,8184356689453;	597,25;	0,0;	0,0
254,856689453125;	679,0;	0,0;	0,0
254,8949432373047;	813,0;	0,0;	0,0
254,93316650390625;	871,25;	0,0;	0,0
254,97140502929688;	618,5;	0,0;	0,0
255,0095977783203;	443,5;	0,0;	0,0
255,04782104492188;	418,0;	0,0;	0,0
255,08602905273438;	305,0;	0,0;	0,0
255,12423706054688;	220,0;	0,0;	0,0
255,16241455078125;	190,75;	0,0;	0,0
255,20062255859375;	197,25;	0,0;	0,0
255,23878479003906;	227,5;	0,0;	0,0
255,27696228027344;	227,0;	0,0;	0,0
255,31512451171875;	196,5;	0,0;	0,0
255,35328674316406;	177,25;	0,0;	0,0
255,39144897460938;	182,0;	0,0;	0,0
255,42958068847656;	218,25;	0,0;	0,0
255,46774291992188;	256,5;	0,0;	0,0
255,50587463378906;	229,25;	0,0;	0,0
255,54400634765625;	193,5;	0,0;	0,0
255,58212280273438;	201,5;	0,0;	0,0
255,6202392578125;	210,5;	0,0;	0,0
255,65835571289062;	200,75;	0,0;	0,0
255,6964569091797;	198,0;	0,0;	0,0
255,7345428466797;	206,75;	0,0;	0,0
255,77264404296875;	198,75;	0,0;	0,0
255,81072998046875;	191,25;	0,0;	0,0
255,84881591796875;	206,25;	0,0;	0,0
255,8868865966797;	220,5;	0,0;	0,0
255,92494201660156;	275,25;	0,0;	0,0
255,96299743652344;	309,25;	0,0;	0,0
256,00103759765625;	308,0;	0,0;	0,0
256,0390930175781;	226,5;	0,0;	0,0
256,0771484375;	252,25;	0,0;	0,0
256,1152038574219;	318,0;	0,0;	0,0
256,1531982421875;	603,0;	0,0;	0,0
256,19122314453125;	1042,0;	0,0;	0,0
256,229248046875;	1227,75;	0,0;	0,0
256,2672424316406;	665,0;	0,0;	0,0
256,3052673339844;	936,0;	0,0;	0,0
256,3432312011719;	447,5;	0,0;	0,0
256,3812561035156;	226,0;	0,0;	0,0
256,4192199707031;	187,75;	0,0;	0,0
256,4571838378906;	183,0;	0,0;	0,0
256,49517822265625;	187,5;	0,0;	0,0
256,5331115722656;	230,25;	0,0;	0,0
256,57110595703125;	302,5;	0,0;	0,0
256,6090087890625;	399,75;	0,0;	0,0
256,64697265625;	521,5;	0,0;	0,0
256,6849060058594;	353,25;	0,0;	0,0
256,72283935546875;	211,5;	0,0;	0,0
256,76080322265625;	241,75;	0,0;	0,0
256,7986755371094;	244,75;	0,0;	0,0
256,83660888671875;	221,25;	0,0;	0,0
256,87451171875;	199,0;	0,0;	0,0
256,91241455078125;	223,75;	0,0;	0,0
256,9503173828125;	228,75;	0,0;	0,0
256,9881896972656;	277,25;	0,0;	0,0
257,02606201171875;	338,5;	0,0;	0,0
257,06396484375;	284,0;	0,0;	0,0
257,101806640625;	185,75;	0,0;	0,0
257,1396789550781;	205,75;	0,0;	0,0
257,1775207519531;	189,5;	0,0;	0,0
257,2153625488281;	198,75;	0,0;	0,0
257,2532043457031;	226,0;	0,0;	0,0
257,291015625;	209,25;	0,0;	0,0
257,3288879394531;	244,25;	0,0;	0,0
257,3666687011719;	355,25;	0,0;	0,0
257,404541015625;	471,25;	0,0;	0,0
257,44232177734375;	259,5;	0,0;	0,0
257,4801330566406;	268,0;	0,0;	0,0
257,5179138183594;	367,0;	0,0;	0,0
257,5556945800781;	590,5;	0,0;	0,0
257,593505859375;	470,5;	0,0;	0,0
257,6312561035156;	388,25;	0,0;	0,0
257,6690673828125;	355,0;	0,0;	0,0
257,7068176269531;	317,0;	0,0;	0,0
257,7445373535156;	520,75;	0,0;	0,0
257,7823181152344;	402,25;	0,0;	0,0
257,8200378417969;	219,5;	0,0;	0,0
257,8577880859375;	191,5;	0,0;	0,0
257,8955383300781;	223,0;	0,0;	0,0
257,9332275390625;	198,25;	0,0;	0,0
257,9709777832031;	193,5;	0,0;	0,0
258,0086975097656;	169,25;	0,0;	0,0
258,04638671875;	175,75;	0,0;	0,0
258,0840759277344;	221,0;	0,0;	0,0
258,1217956542969;	258,0;	0,0;	0,0
258,15948486328125;	360,25;	0,0;	0,0
258,1971435546875;	620,5;	0,0;	0,0
258,23486328125;	659,75;	0,0;	0,0
258,2724914550781;	257,0;	0,0;	0,0
258,3101806640625;	227,5;	0,0;	0,0
258,3478088378906;	245,5;	0,0;	0,0
258,3854675292969;	347,75;	0,0;	0,0
258,423095703125;	440,25;	0,0;	0,0
258,4607238769531;	405,5;	0,0;	0,0
258,49835205078125;	728,25;	0,0;	0,0
258,5360107421875;	1533,25;	0,0;	0,0
258,5736083984375;	1120,25;	0,0;	0,0
258,6112060546875;	317,5;	0,0;	0,0
258,6488037109375;	208,25;	0,0;	0,0
258,6864013671875;	221,5;	0,0;	0,0
258,7239990234375;	302,5;	0,0;	0,0
258,7615661621094;	435,0;	0,0;	0,0
258,7991638183594;	285,75;	0,0;	0,0
258,83673095703125;	236,5;	0,0;	0,0
258,8742980957031;	185,25;	0,0;	0,0
258,9118347167969;	185,25;	0,0;	0,0
258,9494323730469;	202,5;	0,0;	0,0
258,9869689941406;	205,25;	0,0;	0,0
259,02447509765625;	248,25;	0,0;	0,0
259,06201171875;	320,0;	0,0;	0,0
259,09954833984375;	613,5;	0,0;	0,0
259,1370544433594;	513,75;	0,0;	0,0
259,174560546875;	297,5;	0,0;	0,0
259,2120666503906;	407,0;	0,0;	0,0
259,24957275390625;	472,0;	0,0;	0,0
259,28704833984375;	370,75;	0,0;	0,0
259,3245544433594;	565,25;	0,0;	0,0
259,3620300292969;	387,75;	0,0;	0,0
259,3995361328125;	229,0;	0,0;	0,0
259,4369812011719;	182,0;	0,0;	0,0
259,47442626953125;	186,75;	0,0;	0,0
259,51190185546875;	199,0;	0,0;	0,0
259,5493469238281;	189,75;	0,0;	0,0
259,5867919921875;	194,5;	0,0;	0,0
259,62420654296875;	206,5;	0,0;	0,0
259,66162109375;	278,75;	0,0;	0,0
259,6990661621094;	403,5;	0,0;	0,0
259,7364807128906;	718,25;	0,0;	0,0
259,7738952636719;	1691,75;	0,0;	0,0
259,8113098144531;	2013,75;	0,0;	0,0
259,8486633300781;	1493,75;	0,0;	0,0
259,88604736328125;	2695,25;	0,0;	0,0
259,9234313964844;	2207,0;	0,0;	0,0
259,9608154296875;	602,25;	0,0;	0,0
259,9981994628906;	277,25;	0,0;	0,0
260,0355529785156;	242,25;	0,0;	0,0
260,0729064941406;	208,0;	0,0;	0,0
260,1102600097656;	194,5;	0,0;	0,0
260,1476135253906;	183,5;	0,0;	0,0
260,1849365234375;	189,0;	0,0;	0,0
260,2222595214844;	184,0;	0,0;	0,0
260,25958251953125;	186,5;	0,0;	0,0
260,2969055175781;	178,75;	0,0;	0,0
260,334228515625;	199,75;	0,0;	0,0
260,37152099609375;	193,0;	0,0;	0,0
260,4088439941406;	231,5;	0,0;	0,0
260,44610595703125;	302,25;	0,0;	0,0
260,4833679199219;	399,75;	0,0;	0,0
260,52069091796875;	560,75;	0,0;	0,0
260,5579528808594;	468,0;	0,0;	0,0
260,5952453613281;	590,75;	0,0;	0,0
260,6324462890625;	1124,5;	0,0;	0,0
260,66973876953125;	1759,25;	0,0;	0,0
260,70697021484375;	760,25;	0,0;	0,0
260,7441711425781;	289,0;	0,0;	0,0
260,78143310546875;	246,25;	0,0;	0,0
260,81866455078125;	257,75;	0,0;	0,0
260,85589599609375;	261,5;	0,0;	0,0
260,8930969238281;	240,5;	0,0;	0,0
260,9302978515625;	240,0;	0,0;	0,0
260,967529296875;	241,0;	0,0;	0,0
261,0046691894531;	257,75;	0,0;	0,0
261,0419006347656;	398,25;	0,0;	0,0
261,0790710449219;	645,75;	0,0;	0,0
261,1162109375;	1265,0;	0,0;	0,0
261,1534118652344;	1919,0;	0,0;	0,0
261,1905517578125;	735,25;	0,0;	0,0
261,22772216796875;	342,5;	0,0;	0,0
261,2648620605469;	390,25;	0,0;	0,0
261,3019714355469;	714,0;	0,0;	0,0
261,3391418457031;	1275,5;	0,0;	0,0
261,3762512207031;	702,5;	0,0;	0,0
261,41339111328125;	263,75;	0,0;	0,0
261,4504699707031;	195,5;	0,0;	0,0
261,48760986328125;	196,5;	0,0;	0,0
261,52471923828125;	184,25;	0,0;	0,0
261,5617980957031;	205,25;	0,0;	0,0
261,5989074707031;	222,75;	0,0;	0,0
261,6359558105469;	267,25;	0,0;	0,0
261,6730651855469;	506,25;	0,0;	0,0
261,7101135253906;	1032,0;	0,0;	0,0
261,7471618652344;	849,0;	0,0;	0,0
261,78424072265625;	342,25;	0,0;	0,0
261,8212585449219;	245,5;	0,0;	0,0
261,85833740234375;	235,5;	0,0;	0,0
261,8953552246094;	258,0;	0,0;	0,0
261,93243408203125;	212,0;	0,0;	0,0
261,96942138671875;	281,5;	0,0;	0,0
262,00640869140625;	366,25;	0,0;	0,0
262,04345703125;	343,25;	0,0;	0,0
262,0804443359375;	369,5;	0,0;	0,0
262,117431640625;	604,5;	0,0;	0,0
262,1544494628906;	519,75;	0,0;	0,0
262,19140625;	228,0;	0,0;	0,0
262,2283935546875;	211,0;	0,0;	0,0
262,265380859375;	231,75;	0,0;	0,0
262,3023376464844;	325,75;	0,0;	0,0
262,3392639160156;	324,25;	0,0;	0,0
262,376220703125;	225,0;	0,0;	0,0
262,4131774902344;	261,5;	0,0;	0,0
262,4501037597656;	425,75;	0,0;	0,0
262,487060546875;	812,75;	0,0;	0,0
262,52398681640625;	1509,0;	0,0;	0,0
262,5608825683594;	689,5;	0,0;	0,0
262,5978088378906;	310,75;	0,0;	0,0
262,6346740722656;	272,25;	0,0;	0,0
262,6716003417969;	249,25;	0,0;	0,0
262,70849609375;	307,5;	0,0;	0,0
262,7453918457031;	578,25;	0,0;	0,0
262,7822570800781;	1190,75;	0,0;	0,0
262,8191223144531;	788,5;	0,0;	0,0
262,8559875488281;	323,5;	0,0;	0,0
262,892822265625;	338,75;	0,0;	0,0
262,9296875;	441,0;	0,0;	0,0
262,966552734375;	492,25;	0,0;	0,0
263,0033874511719;	672,25;	0,0;	0,0
263,04022216796875;	1524,25;	0,0;	0,0
263,0770568847656;	2607,75;	0,0;	0,0
263,1138916015625;	1608,0;	0,0;	0,0
263,1506652832031;	502,5;	0,0;	0,0
263,1875;	307,0;	0,0;	0,0
263,2242736816406;	235,5;	0,0;	0,0
263,2610778808594;	223,25;	0,0;	0,0
263,2978820800781;	219,0;	0,0;	0,0
263,3346252441406;	175,25;	0,0;	0,0
263,3714294433594;	172,5;	0,0;	0,0
263,4081726074219;	193,75;	0,0;	0,0
263,4449462890625;	198,5;	0,0;	0,0
263,4817199707031;	204,0;	0,0;	0,0
263,5184326171875;	267,5;	0,0;	0,0
263,55517578125;	279,75;	0,0;	0,0
263,5918884277344;	207,25;	0,0;	0,0
263,62860107421875;	190,75;	0,0;	0,0
263,66534423828125;	198,0;	0,0;	0,0
263,7020568847656;	215,75;	0,0;	0,0
263,7388000488281;	222,25;	0,0;	0,0
263,7754821777344;	183,0;	0,0;	0,0
263,8121643066406;	164,25;	0,0;	0,0
263,8488464355469;	183,5;	0,0;	0,0
263,8855285644531;	177,25;	0,0;	0,0
263,9222106933594;	207,5;	0,0;	0,0
263,9588928222656;	189,0;	0,0;	0,0
263,99554443359375;	179,0;	0,0;	0,0
264,0321960449219;	172,25;	0,0;	0,0
264,0688171386719;	190,0;	0,0;	0,0
264,1054992675781;	192,75;	0,0;	0,0
264,14208984375;	209,0;	0,0;	0,0
264,1787414550781;	185,0;	0,0;	0,0
264,2153625488281;	200,0;	0,0;	0,0
264,251953125;	168,0;	0,0;	0,0
264,28857421875;	180,25;	0,0;	0,0
264,3251647949219;	200,5;	0,0;	0,0
264,36175537109375;	239,5;	0,0;	0,0
264,3983459472656;	197,5;	0,0;	0,0
264,4349365234375;	192,5;	0,0;	0,0
264,47149658203125;	197,0;	0,0;	0,0
264,5080871582031;	168,25;	0,0;	0,0
264,5446472167969;	167,25;	0,0;	0,0
264,5812072753906;	166,75;	0,0;	0,0
264,61773681640625;	164,25;	0,0;	0,0
264,654296875;	179,0;	0,0;	0,0
264,6907958984375;	186,5;	0,0;	0,0
264,72735595703125;	188,0;	0,0;	0,0
264,76385498046875;	184,25;	0,0;	0,0
264,8003845214844;	178,5;	0,0;	0,0
264,8368835449219;	177,0;	0,0;	0,0
264,8733825683594;	174,75;	0,0;	0,0
264,9098815917969;	177,0;	0,0;	0,0
264,94635009765625;	181,5;	0,0;	0,0
264,98284912109375;	191,75;	0,0;	0,0
265,0193176269531;	190,0;	0,0;	0,0
265,0558166503906;	182,75;	0,0;	0,0
265,0922546386719;	200,5;	0,0;	0,0
265,1286926269531;	186,25;	0,0;	0,0
265,1651611328125;	171,25;	0,0;	0,0
265,20159912109375;	186,0;	0,0;	0,0
265,238037109375;	188,75;	0,0;	0,0
265,27447509765625;	178,25;	0,0;	0,0
265,31085205078125;	188,0;	0,0;	0,0
265,3472900390625;	165,0;	0,0;	0,0
265,3836669921875;	170,0;	0,0;	0,0
265,42010498046875;	175,75;	0,0;	0,0
265,45648193359375;	181,5;	0,0;	0,0
265,49285888671875;	169,5;	0,0;	0,0
265,5292663574219;	181,5;	0,0;	0,0
265,56561279296875;	200,5;	0,0;	0,0
265,6020202636719;	199,75;	0,0;	0,0
265,63836669921875;	183,75;	0,0;	0,0
265,67474365234375;	194,25;	0,0;	0,0
265,7110595703125;	166,25;	0,0;	0,0
265,74737548828125;	179,25;	0,0;	0,0
265,7837219238281;	186,75;	0,0;	0,0
265,8200378417969;	196,75;	0,0;	0,0
265,85638427734375;	158,5;	0,0;	0,0
265,8927307128906;	183,5;	0,0;	0,0
265,92901611328125;	182,5;	0,0;	0,0
265,96533203125;	185,25;	0,0;	0,0
266,0016174316406;	196,25;	0,0;	0,0
266,03790283203125;	188,25;	0,0;	0,0
266,0741882324219;	161,75;	0,0;	0,0
266,1104431152344;	178,75;	0,0;	0,0
266,1466979980469;	200,0;	0,0;	0,0
266,1829528808594;	196,5;	0,0;	0,0
266,21923828125;	184,0;	0,0;	0,0
266,2554626464844;	210,25;	0,0;	0,0
266,2917175292969;	191,25;	0,0;	0,0
266,32794189453125;	212,5;	0,0;	0,0
266,3641662597656;	262,75;	0,0;	0,0
266,4004211425781;	378,5;	0,0;	0,0
266,4366149902344;	504,5;	0,0;	0,0
266,4728088378906;	249,0;	0,0;	0,0
266,5090026855469;	207,25;	0,0;	0,0
266,5451965332031;	205,25;	0,0;	0,0
266,5814208984375;	323,25;	0,0;	0,0
266,6175842285156;	515,25;	0,0;	0,0
266,65374755859375;	447,0;	0,0;	0,0
266,6899108886719;	245,5;	0,0;	0,0
266,7261047363281;	200,5;	0,0;	0,0
266,7622375488281;	178,0;	0,0;	0,0
266,7983703613281;	185,0;	0,0;	0,0
266,83453369140625;	184,0;	0,0;	0,0
266,8706359863281;	180,25;	0,0;	0,0
266,90679931640625;	189,25;	0,0;	0,0
266,9429016113281;	173,5;	0,0;	0,0
266,97900390625;	186,5;	0,0;	0,0
267,01513671875;	187,0;	0,0;	0,0
267,05120849609375;	174,5;	0,0;	0,0
267,08734130859375;	174,0;	0,0;	0,0
267,1234130859375;	166,25;	0,0;	0,0
267,1594543457031;	158,25;	0,0;	0,0
267,1955871582031;	191,0;	0,0;	0,0
267,2315979003906;	176,75;	0,0;	0,0
267,2677001953125;	178,0;	0,0;	0,0
267,3037414550781;	176,0;	0,0;	0,0
267,3397521972656;	185,0;	0,0;	0,0
267,3758239746094;	193,5;	0,0;	0,0
267,4118347167969;	186,75;	0,0;	0,0
267,4479064941406;	179,5;	0,0;	0,0
267,48388671875;	172,0;	0,0;	0,0
267,5199279785156;	169,0;	0,0;	0,0
267,555908203125;	156,75;	0,0;	0,0
267,5918884277344;	180,25;	0,0;	0,0
267,6279296875;	198,25;	0,0;	0,0
267,66387939453125;	169,5;	0,0;	0,0
267,69989013671875;	158,5;	0,0;	0,0
267,73583984375;	180,25;	0,0;	0,0
267,7718200683594;	168,0;	0,0;	0,0
267,8077697753906;	186,5;	0,0;	0,0
267,8437194824219;	273,75;	0,0;	0,0
267,8796691894531;	347,25;	0,0;	0,0
267,9156188964844;	204,5;	0,0;	0,0
267,9515686035156;	180,0;	0,0;	0,0
267,9874572753906;	178,75;	0,0;	0,0
268,02337646484375;	207,25;	0,0;	0,0
268,0592956542969;	195,5;	0,0;	0,0
268,0951843261719;	180,75;	0,0;	0,0
268,131103515625;	184,0;	0,0;	0,0
268,1669616699219;	184,25;	0,0;	0,0
268,2028503417969;	175,0;	0,0;	0,0
268,2387390136719;	200,25;	0,0;	0,0
268,2746276855469;	191,25;	0,0;	0,0
268,3105163574219;	195,0;	0,0;	0,0
268,3463439941406;	196,5;	0,0;	0,0
268,3822021484375;	231,5;	0,0;	0,0
268,41802978515625;	328,5;	0,0;	0,0
268,453857421875;	351,5;	0,0;	0,0
268,4897155761719;	201,0;	0,0;	0,0
268,5255126953125;	163,75;	0,0;	0,0
268,5613098144531;	164,25;	0,0;	0,0
268,59716796875;	180,75;	0,0;	0,0
268,6329345703125;	167,25;	0,0;	0,0
268,66876220703125;	180,5;	0,0;	0,0
268,7045593261719;	176,75;	0,0;	0,0
268,7403259277344;	166,0;	0,0;	0,0
268,7760925292969;	192,25;	0,0;	0,0
268,8118591308594;	201,0;	0,0;	0,0
268,84765625;	225,25;	0,0;	0,0
268,88336181640625;	318,75;	0,0;	0,0
268,9191589355469;	251,5;	0,0;	0,0
268,95489501953125;	228,0;	0,0;	0,0
268,9906005859375;	189,0;	0,0;	0,0
269,0263366699219;	192,5;	0,0;	0,0
269,06207275390625;	178,75;	0,0;	0,0
269,0977783203125;	198,75;	0,0;	0,0
269,13348388671875;	189,0;	0,0;	0,0
269,1692199707031;	231,0;	0,0;	0,0
269,20489501953125;	366,25;	0,0;	0,0
269,2405700683594;	405,75;	0,0;	0,0
269,2762451171875;	212,25;	0,0;	0,0
269,3119201660156;	186,5;	0,0;	0,0
269,34759521484375;	175,0;	0,0;	0,0
269,3832702636719;	179,0;	0,0;	0,0
269,41888427734375;	207,25;	0,0;	0,0
269,45458984375;	215,0;	0,0;	0,0
269,4902038574219;	199,75;	0,0;	0,0
269,5258483886719;	226,5;	0,0;	0,0
269,56146240234375;	225,0;	0,0;	0,0
269,5970764160156;	258,0;	0,0;	0,0
269,6327209472656;	216,5;	0,0;	0,0
269,6683044433594;	223,25;	0,0;	0,0
269,70391845703125;	195,25;	0,0;	0,0
269,739501953125;	185,5;	0,0;	0,0
269,77508544921875;	183,0;	0,0;	0,0
269,8106689453125;	188,75;	0,0;	0,0
269,84625244140625;	206,0;	0,0;	0,0
269,8818054199219;	230,0;	0,0;	0,0
269,9173583984375;	192,25;	0,0;	0,0
269,9529113769531;	159,0;	0,0;	0,0
269,98846435546875;	178,25;	0,0;	0,0
270,0240173339844;	178,0;	0,0;	0,0
270,0595397949219;	162,5;	0,0;	0,0
270,0950622558594;	192,0;	0,0;	0,0
270,1305847167969;	184,0;	0,0;	0,0
270,16607666015625;	187,5;	0,0;	0,0
270,2015686035156;	167,0;	0,0;	0,0
270,2370910644531;	168,75;	0,0;	0,0
270,2725830078125;	171,0;	0,0;	0,0
270,3080749511719;	199,0;	0,0;	0,0
270,3435363769531;	351,75;	0,0;	0,0
270,3790283203125;	342,0;	0,0;	0,0
270,41448974609375;	194,75;	0,0;	0,0
270,4499206542969;	183,5;	0,0;	0,0
270,4853820800781;	188,5;	0,0;	0,0
270,5208435058594;	203,75;	0,0;	0,0
270,5562744140625;	255,5;	0,0;	0,0
270,5917053222656;	290,25;	0,0;	0,0
270,62713623046875;	373,25;	0,0;	0,0
270,66253662109375;	252,75;	0,0;	0,0
270,69793701171875;	224,25;	0,0;	0,0
270,7333679199219;	191,75;	0,0;	0,0
270,7687683105469;	191,5;	0,0;	0,0
270,8041076660156;	238,5;	0,0;	0,0
270,8395080566406;	283,25;	0,0;	0,0
270,8748779296875;	247,5;	0,0;	0,0
270,9102783203125;	203,75;	0,0;	0,0
270,94561767578125;	190,75;	0,0;	0,0
270,98095703125;	204,75;	0,0;	0,0
271,016357421875;	213,0;	0,0;	0,0
271,0516662597656;	218,25;	0,0;	0,0
271,0870056152344;	212,75;	0,0;	0,0
271,122314453125;	356,75;	0,0;	0,0
271,15765380859375;	386,75;	0,0;	0,0
271,1929626464844;	244,0;	0,0;	0,0
271,228271484375;	192,5;	0,0;	0,0
271,2635498046875;	188,25;	0,0;	0,0
271,2988586425781;	192,75;	0,0;	0,0
271,3341369628906;	222,75;	0,0;	0,0
271,36944580078125;	537,0;	0,0;	0,0
271,4046936035156;	847,25;	0,0;	0,0
271,4399719238281;	419,5;	0,0;	0,0
271,4752197265625;	214,75;	0,0;	0,0
271,5104675292969;	199,25;	0,0;	0,0
271,5457458496094;	223,5;	0,0;	0,0
271,58099365234375;	315,0;	0,0;	0,0
271,6161804199219;	222,25;	0,0;	0,0
271,65142822265625;	191,75;	0,0;	0,0
271,6866455078125;	172,5;	0,0;	0,0
271,7218322753906;	225,25;	0,0;	0,0
271,7570495605469;	279,5;	0,0;	0,0
271,792236328125;	380,0;	0,0;	0,0
271,82745361328125;	617,25;	0,0;	0,0
271,8626403808594;	1147,75;	0,0;	0,0
271,8977966308594;	688,0;	0,0;	0,0
271,9329833984375;	297,25;	0,0;	0,0
271,9681396484375;	278,0;	0,0;	0,0
272,0032653808594;	332,5;	0,0;	0,0
272,0384216308594;	710,25;	0,0;	0,0
272,0735778808594;	572,0;	0,0;	0,0
272,10870361328125;	256,5;	0,0;	0,0
272,1438293457031;	206,5;	0,0;	0,0
272,178955078125;	210,25;	0,0;	0,0
272,2140808105469;	196,5;	0,0;	0,0
272,2491760253906;	230,0;	0,0;	0,0
272,2843017578125;	322,75;	0,0;	0,0
272,31939697265625;	473,75;	0,0;	0,0
272,3544921875;	333,0;	0,0;	0,0
272,3895568847656;	237,75;	0,0;	0,0
272,4245910644531;	310,5;	0,0;	0,0
272,4596862792969;	412,25;	0,0;	0,0
272,4947509765625;	254,75;	0,0;	0,0
272,5298156738281;	240,5;	0,0;	0,0
272,56488037109375;	273,25;	0,0;	0,0
272,5998840332031;	280,75;	0,0;	0,0
272,6349182128906;	265,5;	0,0;	0,0
272,6699523925781;	455,75;	0,0;	0,0
272,7049865722656;	950,75;	0,0;	0,0
272,739990234375;	780,0;	0,0;	0,0
272,7750244140625;	312,25;	0,0;	0,0
272,80999755859375;	228,75;	0,0;	0,0
272,844970703125;	244,75;	0,0;	0,0
272,8799743652344;	218,75;	0,0;	0,0
272,9149475097656;	179,0;	0,0;	0,0
272,9499206542969;	192,5;	0,0;	0,0
272,9848937988281;	224,75;	0,0;	0,0
273,0198059082031;	377,25;	0,0;	0,0
273,0547790527344;	411,25;	0,0;	0,0
273,0897216796875;	219,5;	0,0;	0,0
273,12469482421875;	186,75;	0,0;	0,0
273,1595764160156;	180,75;	0,0;	0,0
273,1944885253906;	202,5;	0,0;	0,0
273,22943115234375;	204,5;	0,0;	0,0
273,2643127441406;	272,75;	0,0;	0,0
273,2992248535156;	473,75;	0,0;	0,0
273,3341064453125;	640,75;	0,0;	0,0
273,3690185546875;	297,75;	0,0;	0,0
273,4039001464844;	222,75;	0,0;	0,0
273,4387512207031;	268,25;	0,0;	0,0
273,4736328125;	329,75;	0,0;	0,0
273,50848388671875;	502,25;	0,0;	0,0
273,5433654785156;	361,25;	0,0;	0,0
273,5782165527344;	256,75;	0,0;	0,0
273,613037109375;	353,0;	0,0;	0,0
273,64788818359375;	748,25;	0,0;	0,0
273,68267822265625;	901,0;	0,0;	0,0
273,717529296875;	541,5;	0,0;	0,0
273,7523193359375;	262,75;	0,0;	0,0
273,787109375;	266,5;	0,0;	0,0
273,8219299316406;	318,0;	0,0;	0,0
273,8567199707031;	543,5;	0,0;	0,0
273,8915100097656;	1379,25;	0,0;	0,0
273,9263000488281;	2118,25;	0,0;	0,0
273,9610900878906;	805,75;	0,0;	0,0
273,99578857421875;	288,5;	0,0;	0,0
274,0305480957031;	215,75;	0,0;	0,0
274,0653381347656;	227,5;	0,0;	0,0
274,1000671386719;	252,5;	0,0;	0,0
274,13482666015625;	344,75;	0,0;	0,0
274,1695251464844;	572,75;	0,0;	0,0
274,2042236328125;	936,25;	0,0;	0,0
274,2389831542969;	757,75;	0,0;	0,0
274,2736511230469;	1314,25;	0,0;	0,0
274,3083801269531;	1002,75;	0,0;	0,0
274,34307861328125;	477,75;	0,0;	0,0
274,3777160644531;	495,5;	0,0;	0,0
274,4124450683594;	367,75;	0,0;	0,0
274,44708251953125;	294,0;	0,0;	0,0
274,4817810058594;	248,25;	0,0;	0,0
274,51641845703125;	331,25;	0,0;	0,0
274,5510559082031;	544,25;	0,0;	0,0
274,5857238769531;	1280,25;	0,0;	0,0
274,620361328125;	2260,5;	0,0;	0,0
274,6549987792969;	2062,0;	0,0;	0,0
274,68963623046875;	1067,5;	0,0;	0,0
274,7242431640625;	380,5;	0,0;	0,0
274,75885009765625;	325,0;	0,0;	0,0
274,79345703125;	425,25;	0,0;	0,0
274,82806396484375;	679,5;	0,0;	0,0
274,86260986328125;	1833,75;	0,0;	0,0
274,8972473144531;	3361,75;	0,0;	0,0
274,9317932128906;	1548,5;	0,0;	0,0
274,96636962890625;	795,0;	0,0;	0,0
275,00091552734375;	545,75;	0,0;	0,0
275,03546142578125;	305,25;	0,0;	0,0
275,0700378417969;	309,25;	0,0;	0,0
275,1045837402344;	214,75;	0,0;	0,0
275,1391296386719;	224,0;	0,0;	0,0
275,17364501953125;	232,75;	0,0;	0,0
275,2081604003906;	231,0;	0,0;	0,0
275,24267578125;	318,0;	0,0;	0,0
275,27716064453125;	652,25;	0,0;	0,0
275,31170654296875;	614,5;	0,0;	0,0
275,3461608886719;	344,75;	0,0;	0,0
275,3806457519531;	326,0;	0,0;	0,0
275,4151611328125;	297,5;	0,0;	0,0
275,4495849609375;	389,0;	0,0;	0,0
275,48406982421875;	743,75;	0,0;	0,0
275,5185241699219;	2048,75;	0,0;	0,0
275,5529479980469;	2210,0;	0,0;	0,0
275,5874328613281;	870,75;	0,0;	0,0
275,621826171875;	440,0;	0,0;	0,0
275,6562805175781;	280,25;	0,0;	0,0
275,6907043457031;	312,75;	0,0;	0,0
275,72515869140625;	259,0;	0,0;	0,0
275,759521484375;	215,75;	0,0;	0,0
275,7939147949219;	183,0;	0,0;	0,0
275,82830810546875;	169,5;	0,0;	0,0
275,8627014160156;	175,75;	0,0;	0,0
275,8971252441406;	180,5;	0,0;	0,0
275,93145751953125;	205,25;	0,0;	0,0
275,9658203125;	201,0;	0,0;	0,0
276,00018310546875;	170,75;	0,0;	0,0
276,0345458984375;	184,25;	0,0;	0,0
276,06890869140625;	199,25;	0,0;	0,0
276,10321044921875;	279,0;	0,0;	0,0
276,1375732421875;	543,5;	0,0;	0,0
276,171875;	444,75;	0,0;	0,0
276,2062072753906;	258,0;	0,0;	0,0
276,24053955078125;	240,0;	0,0;	0,0
276,2748107910156;	242,5;	0,0;	0,0
276,3091125488281;	213,75;	0,0;	0,0
276,3434143066406;	175,75;	0,0;	0,0
276,377685546875;	227,0;	0,0;	0,0
276,4119567871094;	212,5;	0,0;	0,0
276,44622802734375;	178,75;	0,0;	0,0
276,4804992675781;	160,75;	0,0;	0,0
276,5147399902344;	162,25;	0,0;	0,0
276,54901123046875;	163,0;	0,0;	0,0
276,583251953125;	203,25;	0,0;	0,0
276,6174621582031;	234,75;	0,0;	0,0
276,6517333984375;	299,25;	0,0;	0,0
276,6859130859375;	580,0;	0,0;	0,0
276,7201232910156;	858,0;	0,0;	0,0
276,7543640136719;	399,5;	0,0;	0,0
276,78851318359375;	242,75;	0,0;	0,0
276,8227233886719;	215,5;	0,0;	0,0
276,8569030761719;	335,0;	0,0;	0,0
276,89111328125;	364,0;	0,0;	0,0
276,9252624511719;	257,25;	0,0;	0,0
276,95941162109375;	200,75;	0,0;	0,0
276,9935607910156;	195,25;	0,0;	0,0
277,0277099609375;	173,5;	0,0;	0,0
277,0618896484375;	174,0;	0,0;	0,0
277,09600830078125;	182,0;	0,0;	0,0
277,130126953125;	219,25;	0,0;	0,0
277,1642761230469;	359,5;	0,0;	0,0
277,1983642578125;	323,75;	0,0;	0,0
277,23248291015625;	204,0;	0,0;	0,0
277,2666015625;	218,0;	0,0;	0,0
277,3006896972656;	193,0;	0,0;	0,0
277,33477783203125;	185,25;	0,0;	0,0
277,36883544921875;	180,25;	0,0;	0,0
277,4029235839844;	207,5;	0,0;	0,0
277,4369812011719;	235,5;	0,0;	0,0
277,4710388183594;	194,0;	0,0;	0,0
277,5050964355469;	183,0;	0,0;	0,0
277,53912353515625;	172,0;	0,0;	0,0
277,5731506347656;	165,25;	0,0;	0,0
277,6072082519531;	193,25;	0,0;	0,0
277,6412353515625;	199,0;	0,0;	0,0
277,67523193359375;	193,0;	0,0;	0,0
277,709228515625;	193,0;	0,0;	0,0
277,7432556152344;	240,5;	0,0;	0,0
277,7772521972656;	335,0;	0,0;	0,0
277,8112487792969;	296,0;	0,0;	0,0
277,84521484375;	248,5;	0,0;	0,0
277,8791809082031;	364,0;	0,0;	0,0
277,91314697265625;	369,25;	0,0;	0,0
277,94708251953125;	222,0;	0,0;	0,0
277,9810791015625;	193,5;	0,0;	0,0
278,0150146484375;	175,25;	0,0;	0,0
278,0489501953125;	180,0;	0,0;	0,0
278,0828857421875;	183,5;	0,0;	0,0
278,1167907714844;	188,5;	0,0;	0,0
278,1507263183594;	200,25;	0,0;	0,0
278,18463134765625;	182,0;	0,0;	0,0
278,21856689453125;	172,5;	0,0;	0,0
278,2524108886719;	201,25;	0,0;	0,0
278,28631591796875;	252,25;	0,0;	0,0
278,3202209472656;	408,5;	0,0;	0,0
278,3540954589844;	393,5;	0,0;	0,0
278,387939453125;	202,75;	0,0;	0,0
278,42181396484375;	180,5;	0,0;	0,0
278,4556884765625;	175,5;	0,0;	0,0
278,489501953125;	228,25;	0,0;	0,0
278,5233459472656;	194,75;	0,0;	0,0
278,55718994140625;	182,75;	0,0;	0,0
278,59100341796875;	171,75;	0,0;	0,0
278,62481689453125;	188,75;	0,0;	0,0
278,65863037109375;	186,5;	0,0;	0,0
278,6924133300781;	207,25;	0,0;	0,0
278,72625732421875;	257,25;	0,0;	0,0
278,760009765625;	613,75;	0,0;	0,0
278,7938232421875;	534,75;	0,0;	0,0
278,8276062011719;	204,75;	0,0;	0,0
278,861328125;	197,0;	0,0;	0,0
278,8951110839844;	185,5;	0,0;	0,0
278,92889404296875;	191,25;	0,0;	0,0
278,962646484375;	181,75;	0,0;	0,0
278,9963684082031;	176,75;	0,0;	0,0
279,03009033203125;	188,5;	0,0;	0,0
279,0638122558594;	187,75;	0,0;	0,0
279,0975341796875;	184,0;	0,0;	0,0
279,1312561035156;	196,25;	0,0;	0,0
279,1649475097656;	179,75;	0,0;	0,0
279,19866943359375;	181,75;	0,0;	0,0
279,23236083984375;	160,25;	0,0;	0,0
279,2659912109375;	152,5;	0,0;	0,0
279,2997131347656;	193,5;	0,0;	0,0
279,3333740234375;	192,25;	0,0;	0,0
279,3670349121094;	262,75;	0,0;	0,0
279,40069580078125;	257,5;	0,0;	0,0
279,434326171875;	452,25;	0,0;	0,0
279,4679870605469;	566,25;	0,0;	0,0
279,5016174316406;	1079,5;	0,0;	0,0
279,5352478027344;	1103,25;	0,0;	0,0
279,5688781738281;	319,25;	0,0;	0,0
279,6025085449219;	223,0;	0,0;	0,0
279,6360778808594;	198,5;	0,0;	0,0
279,669677734375;	202,25;	0,0;	0,0
279,70330810546875;	205,0;	0,0;	0,0
279,7368469238281;	292,5;	0,0;	0,0
279,77044677734375;	374,0;	0,0;	0,0
279,80401611328125;	326,75;	0,0;	0,0
279,8375549316406;	192,0;	0,0;	0,0
279,8711242675781;	186,0;	0,0;	0,0
279,9046936035156;	200,75;	0,0;	0,0
279,938232421875;	165,0;	0,0;	0,0
279,97174072265625;	173,75;	0,0;	0,0
280,0052795410156;	182,5;	0,0;	0,0
280,038818359375;	227,5;	0,0;	0,0
280,0722961425781;	324,75;	0,0;	0,0
280,1058349609375;	229,5;	0,0;	0,0
280,1393127441406;	202,75;	0,0;	0,0
280,17279052734375;	276,75;	0,0;	0,0
280,206298828125;	503,25;	0,0;	0,0
280,23974609375;	846,75;	0,0;	0,0
280,2732238769531;	352,75;	0,0;	0,0
280,3067321777344;	203,75;	0,0;	0,0
280,3401794433594;	187,25;	0,0;	0,0
280,3736267089844;	197,0;	0,0;	0,0
280,40704345703125;	302,75;	0,0;	0,0
280,4405212402344;	264,75;	0,0;	0,0
280,47393798828125;	188,75;	0,0;	0,0
280,5073547363281;	182,5;	0,0;	0,0
280,5407409667969;	178,0;	0,0;	0,0
280,57415771484375;	161,25;	0,0;	0,0
280,6075744628906;	189,75;	0,0;	0,0
280,6409606933594;	295,75;	0,0;	0,0
280,6743469238281;	303,75;	0,0;	0,0
280,70770263671875;	191,0;	0,0;	0,0
280,7410888671875;	154,5;	0,0;	0,0
280,77447509765625;	172,25;	0,0;	0,0
280,8077697753906;	162,75;	0,0;	0,0
280,8411560058594;	173,75;	0,0;	0,0
280,87451171875;	164,5;	0,0;	0,0
280,9078369140625;	179,75;	0,0;	0,0
280,941162109375;	163,0;	0,0;	0,0
280,9744567871094;	182,75;	0,0;	0,0
281,0078125;	164,75;	0,0;	0,0
281,0411071777344;	169,25;	0,0;	0,0
281,0744323730469;	193,25;	0,0;	0,0
281,1076965332031;	172,0;	0,0;	0,0
281,1409606933594;	172,75;	0,0;	0,0
281,1742858886719;	182,25;	0,0;	0,0
281,20751953125;	187,0;	0,0;	0,0
281,24078369140625;	238,5;	0,0;	0,0
281,2740478515625;	421,0;	0,0;	0,0
281,3072814941406;	496,25;	0,0;	0,0
281,3405456542969;	231,5;	0,0;	0,0
281,373779296875;	170,0;	0,0;	0,0
281,4070129394531;	167,25;	0,0;	0,0
281,4402160644531;	183,0;	0,0;	0,0
281,47344970703125;	173,5;	0,0;	0,0
281,50665283203125;	168,25;	0,0;	0,0
281,5398254394531;	177,0;	0,0;	0,0
281,5730285644531;	160,5;	0,0;	0,0
281,606201171875;	162,0;	0,0;	0,0
281,639404296875;	160,75;	0,0;	0,0
281,6725769042969;	171,0;	0,0;	0,0
281,70574951171875;	181,5;	0,0;	0,0
281,7389221191406;	175,75;	0,0;	0,0
281,77203369140625;	153,5;	0,0;	0,0
281,80517578125;	172,25;	0,0;	0,0
281,83831787109375;	154,0;	0,0;	0,0
281,8714294433594;	173,25;	0,0;	0,0
281,9045715332031;	183,75;	0,0;	0,0
281,93768310546875;	191,75;	0,0;	0,0
281,97076416015625;	168,5;	0,0;	0,0
282,0038757324219;	156,5;	0,0;	0,0
282,0369567871094;	163,5;	0,0;	0,0
282,070068359375;	156,75;	0,0;	0,0
282,1031188964844;	166,75;	0,0;	0,0
282,1361999511719;	164,75;	0,0;	0,0
282,16925048828125;	154,25;	0,0;	0,0
282,20233154296875;	187,25;	0,0;	0,0
282,2353820800781;	185,75;	0,0;	0,0
282,2684020996094;	295,75;	0,0;	0,0
282,30145263671875;	329,75;	0,0;	0,0
282,33447265625;	192,5;	0,0;	0,0
282,36749267578125;	164,0;	0,0;	0,0
282,4004821777344;	184,25;	0,0;	0,0
282,4334716796875;	174,25;	0,0;	0,0
282,4665222167969;	203,75;	0,0;	0,0
282,49951171875;	340,25;	0,0;	0,0
282,5325012207031;	399,0;	0,0;	0,0
282,5654602050781;	221,0;	0,0;	0,0
282,59844970703125;	174,0;	0,0;	0,0
282,63140869140625;	165,25;	0,0;	0,0
282,6643371582031;	170,0;	0,0;	0,0
282,69732666015625;	180,0;	0,0;	0,0
282,730224609375;	193,5;	0,0;	0,0
282,76318359375;	177,5;	0,0;	0,0
282,79608154296875;	203,5;	0,0;	0,0
282,82904052734375;	214,5;	0,0;	0,0
282,8619384765625;	183,5;	0,0;	0,0
282,8948059082031;	163,25;	0,0;	0,0
282,927734375;	167,25;	0,0;	0,0
282,96063232421875;	158,75;	0,0;	0,0
282,9934997558594;	169,25;	0,0;	0,0
283,0263671875;	161,25;	0,0;	0,0
283,0592346191406;	187,5;	0,0;	0,0
283,09210205078125;	265,0;	0,0;	0,0
283,1249694824219;	369,25;	0,0;	0,0
283,1578063964844;	292,0;	0,0;	0,0
283,1906433105469;	396,0;	0,0;	0,0
283,2234802246094;	394,75;	0,0;	0,0
283,2563171386719;	231,5;	0,0;	0,0
283,28912353515625;	208,0;	0,0;	0,0
283,32196044921875;	179,5;	0,0;	0,0
283,354736328125;	190,5;	0,0;	0,0
283,38751220703125;	170,75;	0,0;	0,0
283,42034912109375;	196,75;	0,0;	0,0
283,4530944824219;	180,0;	0,0;	0,0
283,48590087890625;	212,25;	0,0;	0,0
283,5186462402344;	319,25;	0,0;	0,0
283,5513916015625;	284,75;	0,0;	0,0
283,58416748046875;	191,75;	0,0;	0,0
283,61688232421875;	192,0;	0,0;	0,0
283,649658203125;	168,0;	0,0;	0,0
283,682373046875;	184,5;	0,0;	0,0
283,7151184082031;	179,75;	0,0;	0,0
283,7478332519531;	235,75;	0,0;	0,0
283,780517578125;	298,5;	0,0;	0,0
283,8132629394531;	215,5;	0,0;	0,0
283,8459167480469;	168,75;	0,0;	0,0
283,8786315917969;	167,25;	0,0;	0,0
283,9112854003906;	203,75;	0,0;	0,0
283,9439697265625;	246,25;	0,0;	0,0
283,97662353515625;	253,25;	0,0;	0,0
284,00927734375;	297,75;	0,0;	0,0
284,04193115234375;	309,5;	0,0;	0,0
284,0745849609375;	201,75;	0,0;	0,0
284,10723876953125;	156,0;	0,0;	0,0
284,1398620605469;	173,5;	0,0;	0,0
284,1724548339844;	164,25;	0,0;	0,0
284,2051086425781;	157,25;	0,0;	0,0
284,2377014160156;	172,25;	0,0;	0,0
284,27032470703125;	201,0;	0,0;	0,0
284,3028869628906;	297,25;	0,0;	0,0
284,33544921875;	436,5;	0,0;	0,0
284,3680419921875;	451,0;	0,0;	0,0
284,400634765625;	237,5;	0,0;	0,0
284,4331970214844;	194,0;	0,0;	0,0
284,46575927734375;	181,0;	0,0;	0,0
284,498291015625;	223,75;	0,0;	0,0
284,5308532714844;	260,5;	0,0;	0,0
284,5633544921875;	198,75;	0,0;	0,0
284,5959167480469;	158,0;	0,0;	0,0
284,62841796875;	173,5;	0,0;	0,0
284,6609191894531;	179,25;	0,0;	0,0
284,6934509277344;	198,75;	0,0;	0,0
284,7259521484375;	181,75;	0,0;	0,0
284,7584533691406;	213,0;	0,0;	0,0
284,7909240722656;	233,25;	0,0;	0,0
284,8233947753906;	212,0;	0,0;	0,0
284,8558654785156;	207,75;	0,0;	0,0
284,8883361816406;	172,25;	0,0;	0,0
284,9208068847656;	194,5;	0,0;	0,0
284,9532165527344;	182,0;	0,0;	0,0
284,9856872558594;	167,5;	0,0;	0,0
285,0180969238281;	169,75;	0,0;	0,0
285,0505676269531;	192,0;	0,0;	0,0
285,0829772949219;	221,75;	0,0;	0,0
285,1153564453125;	377,0;	0,0;	0,0
285,14776611328125;	674,25;	0,0;	0,0
285,18017578125;	859,75;	0,0;	0,0
285,21258544921875;	433,5;	0,0;	0,0
285,2449645996094;	217,25;	0,0;	0,0
285,2773132324219;	199,0;	0,0;	0,0
285,3096923828125;	183,0;	0,0;	0,0
285,342041015625;	176,75;	0,0;	0,0
285,3744201660156;	178,25;	0,0;	0,0
285,4067687988281;	173,0;	0,0;	0,0
285,4390869140625;	169,5;	0,0;	0,0
285,471435546875;	162,5;	0,0;	0,0
285,50372314453125;	178,25;	0,0;	0,0
285,53607177734375;	247,0;	0,0;	0,0
285,568359375;	213,0;	0,0;	0,0
285,60064697265625;	215,75;	0,0;	0,0
285,6329650878906;	217,25;	0,0;	0,0
285,6652526855469;	209,0;	0,0;	0,0
285,69757080078125;	211,0;	0,0;	0,0
285,7298278808594;	202,5;	0,0;	0,0
285,7620544433594;	249,75;	0,0;	0,0
285,7943420410156;	276,5;	0,0;	0,0
285,8265686035156;	267,0;	0,0;	0,0
285,8588562011719;	197,5;	0,0;	0,0
285,89105224609375;	169,75;	0,0;	0,0
285,9233093261719;	168,25;	0,0;	0,0
285,95550537109375;	152,75;	0,0;	0,0
285,98773193359375;	162,0;	0,0;	0,0
286,0199279785156;	159,25;	0,0;	0,0
286,0521545410156;	162,25;	0,0;	0,0
286,0843505859375;	182,5;	0,0;	0,0
286,11651611328125;	157,75;	0,0;	0,0
286,1487121582031;	182,5;	0,0;	0,0
286,1808776855469;	164,0;	0,0;	0,0
286,2130432128906;	162,5;	0,0;	0,0
286,2452087402344;	175,25;	0,0;	0,0
286,27734375;	177,25;	0,0;	0,0
286,3094787597656;	211,25;	0,0;	0,0
286,3416442871094;	189,5;	0,0;	0,0
286,3737487792969;	198,75;	0,0;	0,0
286,4058837890625;	182,0;	0,0;	0,0
286,43798828125;	162,0;	0,0;	0,0
286,4700927734375;	164,0;	0,0;	0,0
286,502197265625;	148,25;	0,0;	0,0
286,5342712402344;	162,25;	0,0;	0,0
286,5663757324219;	161,5;	0,0;	0,0
286,59844970703125;	186,5;	0,0;	0,0
286,6304931640625;	208,5;	0,0;	0,0
286,66253662109375;	173,5;	0,0;	0,0
286,6946105957031;	189,0;	0,0;	0,0
286,7266845703125;	163,75;	0,0;	0,0
286,7586669921875;	185,25;	0,0;	0,0
286,7907409667969;	176,25;	0,0;	0,0
286,82275390625;	203,25;	0,0;	0,0
286,854736328125;	221,0;	0,0;	0,0
286,88677978515625;	277,25;	0,0;	0,0
286,91876220703125;	236,5;	0,0;	0,0
286,9508056640625;	188,0;	0,0;	0,0
286,9827575683594;	176,5;	0,0;	0,0
287,0147705078125;	176,0;	0,0;	0,0
287,0467224121094;	149,0;	0,0;	0,0
287,07867431640625;	205,25;	0,0;	0,0
287,11065673828125;	184,5;	0,0;	0,0
287,142578125;	184,25;	0,0;	0,0
287,174560546875;	227,0;	0,0;	0,0
287,2064514160156;	252,5;	0,0;	0,0
287,2384033203125;	190,5;	0,0;	0,0
287,2703552246094;	197,25;	0,0;	0,0
287,30224609375;	300,0;	0,0;	0,0
287,33416748046875;	226,0;	0,0;	0,0
287,3660583496094;	248,75;	0,0;	0,0
287,39794921875;	253,25;	0,0;	0,0
287,4298400878906;	188,5;	0,0;	0,0
287,461669921875;	184,0;	0,0;	0,0
287,4935607910156;	220,5;	0,0;	0,0
287,5254211425781;	206,25;	0,0;	0,0
287,55731201171875;	163,5;	0,0;	0,0
287,5891418457031;	171,75;	0,0;	0,0
287,6209411621094;	186,0;	0,0;	0,0
287,6528015136719;	221,75;	0,0;	0,0
287,68463134765625;	212,0;	0,0;	0,0
287,7164611816406;	187,25;	0,0;	0,0
287,7482604980469;	176,75;	0,0;	0,0
287,7800598144531;	165,0;	0,0;	0,0
287,8118896484375;	165,25;	0,0;	0,0
287,8436279296875;	174,5;	0,0;	0,0
287,8754577636719;	173,5;	0,0;	0,0
287,9071960449219;	170,75;	0,0;	0,0
287,9389343261719;	175,0;	0,0;	0,0
287,9707336425781;	185,5;	0,0;	0,0
288,0024719238281;	178,25;	0,0;	0,0
288,03424072265625;	289,25;	0,0;	0,0
288,0659484863281;	242,25;	0,0;	0,0
288,09771728515625;	266,5;	0,0;	0,0
288,1294250488281;	309,25;	0,0;	0,0
288,1611633300781;	216,0;	0,0;	0,0
288,19287109375;	164,0;	0,0;	0,0
288,22454833984375;	171,0;	0,0;	0,0
288,2562561035156;	176,25;	0,0;	0,0
288,2879333496094;	172,5;	0,0;	0,0
288,31964111328125;	225,5;	0,0;	0,0
288,35125732421875;	208,5;	0,0;	0,0
288,3829345703125;	178,0;	0,0;	0,0
288,41461181640625;	162,5;	0,0;	0,0
288,4462585449219;	167,75;	0,0;	0,0
288,4778747558594;	165,75;	0,0;	0,0
288,509521484375;	161,75;	0,0;	0,0
288,5411376953125;	152,5;	0,0;	0,0
288,57275390625;	177,25;	0,0;	0,0
288,6043701171875;	166,25;	0,0;	0,0
288,635986328125;	126,25;	0,0;	0,0
288,6675720214844;	164,75;	0,0;	0,0
288,69915771484375;	159,25;	0,0;	0,0
288,73077392578125;	173,5;	0,0;	0,0
288,7623291015625;	189,0;	0,0;	0,0
288,79388427734375;	155,0;	0,0;	0,0
288,8254699707031;	162,75;	0,0;	0,0
288,85699462890625;	151,5;	0,0;	0,0
288,8885498046875;	183,25;	0,0;	0,0
288,9200744628906;	198,5;	0,0;	0,0
288,9516296386719;	185,5;	0,0;	0,0
288,9831237792969;	165,25;	0,0;	0,0
289,0146789550781;	155,25;	0,0;	0,0
289,0461730957031;	167,0;	0,0;	0,0
289,0776672363281;	162,25;	0,0;	0,0
289,1091613769531;	151,75;	0,0;	0,0
289,140625;	179,5;	0,0;	0,0
289,172119140625;	151,0;	0,0;	0,0
289,2035827636719;	193,5;	0,0;	0,0
289,2350769042969;	188,5;	0,0;	0,0
289,26654052734375;	173,25;	0,0;	0,0
289,2979431152344;	164,25;	0,0;	0,0
289,32940673828125;	168,0;	0,0;	0,0
289,36083984375;	190,25;	0,0;	0,0
289,39227294921875;	234,75;	0,0;	0,0
289,4237060546875;	249,0;	0,0;	0,0
289,455078125;	248,0;	0,0;	0,0
289,48651123046875;	250,5;	0,0;	0,0
289,51788330078125;	170,5;	0,0;	0,0
289,5492858886719;	158,25;	0,0;	0,0
289,5806884765625;	153,5;	0,0;	0,0
289,6120300292969;	170,5;	0,0;	0,0
289,6434020996094;	155,75;	0,0;	0,0
289,6747741699219;	171,75;	0,0;	0,0
289,7061462402344;	187,0;	0,0;	0,0
289,7374572753906;	153,25;	0,0;	0,0
289,768798828125;	181,75;	0,0;	0,0
289,8001403808594;	160,25;	0,0;	0,0
289,8314514160156;	167,25;	0,0;	0,0
289,8627624511719;	172,5;	0,0;	0,0
289,8940734863281;	208,5;	0,0;	0,0
289,92535400390625;	195,75;	0,0;	0,0
289,9566650390625;	154,5;	0,0;	0,0
289,9879455566406;	157,0;	0,0;	0,0
290,0192565917969;	150,25;	0,0;	0,0
290,05047607421875;	163,75;	0,0;	0,0
290,081787109375;	170,25;	0,0;	0,0
290,113037109375;	188,75;	0,0;	0,0
290,1442565917969;	199,5;	0,0;	0,0
290,1755065917969;	191,5;	0,0;	0,0
290,2067565917969;	167,25;	0,0;	0,0
290,23797607421875;	164,5;	0,0;	0,0
290,2691955566406;	155,75;	0,0;	0,0
290,3004150390625;	147,75;	0,0;	0,0
290,33160400390625;	148,25;	0,0;	0,0
290,36279296875;	160,5;	0,0;	0,0
290,39398193359375;	155,25;	0,0;	0,0
290,4251403808594;	152,25;	0,0;	0,0
290,45635986328125;	149,75;	0,0;	0,0
290,4875183105469;	154,5;	0,0;	0,0
290,5186462402344;	155,75;	0,0;	0,0
290,5498046875;	164,5;	0,0;	0,0
290,5809326171875;	168,0;	0,0;	0,0
290,6120910644531;	167,25;	0,0;	0,0
290,6432189941406;	178,75;	0,0;	0,0
290,67431640625;	160,25;	0,0;	0,0
290,7054443359375;	170,25;	0,0;	0,0
290,7365417480469;	180,5;	0,0;	0,0
290,7676696777344;	171,5;	0,0;	0,0
290,79876708984375;	166,25;	0,0;	0,0
290,829833984375;	165,5;	0,0;	0,0
290,86090087890625;	174,0;	0,0;	0,0
290,8919677734375;	174,25;	0,0;	0,0
290,9230651855469;	180,75;	0,0;	0,0
290,9541015625;	168,5;	0,0;	0,0
290,9851379394531;	151,25;	0,0;	0,0
291,01617431640625;	147,0;	0,0;	0,0
291,0472106933594;	165,5;	0,0;	0,0
291,0782470703125;	165,25;	0,0;	0,0
291,1092529296875;	171,75;	0,0;	0,0
291,1402893066406;	215,5;	0,0;	0,0
291,1712646484375;	309,0;	0,0;	0,0
291,2022399902344;	296,25;	0,0;	0,0
291,2332458496094;	168,5;	0,0;	0,0
291,26422119140625;	160,25;	0,0;	0,0
291,2951965332031;	174,25;	0,0;	0,0
291,3261413574219;	155,5;	0,0;	0,0
291,35711669921875;	156,5;	0,0;	0,0
291,3880615234375;	185,75;	0,0;	0,0
291,4189758300781;	189,5;	0,0;	0,0
291,449951171875;	136,0;	0,0;	0,0
291,4808654785156;	177,75;	0,0;	0,0
291,5118103027344;	167,75;	0,0;	0,0
291,5426940917969;	153,25;	0,0;	0,0
291,5736083984375;	145,75;	0,0;	0,0
291,6044921875;	167,5;	0,0;	0,0
291,6353759765625;	156,25;	0,0;	0,0
291,6662902832031;	174,75;	0,0;	0,0
291,6971435546875;	169,0;	0,0;	0,0
291,7279968261719;	189,75;	0,0;	0,0
291,75885009765625;	264,75;	0,0;	0,0
291,7897033691406;	280,0;	0,0;	0,0
291,820556640625;	209,75;	0,0;	0,0
291,8514099121094;	161,5;	0,0;	0,0
291,8822021484375;	174,25;	0,0;	0,0
291,9130554199219;	143,75;	0,0;	0,0
291,9438781738281;	173,5;	0,0;	0,0
291,97467041015625;	188,75;	0,0;	0,0
292,0054626464844;	184,75;	0,0;	0,0
292,0362243652344;	203,0;	0,0;	0,0
292,0670471191406;	172,25;	0,0;	0,0
292,0978088378906;	181,75;	0,0;	0,0
292,1285705566406;	176,25;	0,0;	0,0
292,1593322753906;	157,75;	0,0;	0,0
292,1900939941406;	191,5;	0,0;	0,0
292,2208557128906;	188,5;	0,0;	0,0
292,2515563964844;	193,75;	0,0;	0,0
292,2823181152344;	256,5;	0,0;	0,0
292,31304931640625;	298,75;	0,0;	0,0
292,34375;	245,75;	0,0;	0,0
292,37445068359375;	208,25;	0,0;	0,0
292,4051818847656;	167,25;	0,0;	0,0
292,43585205078125;	190,75;	0,0;	0,0
292,466552734375;	204,75;	0,0;	0,0
292,49725341796875;	177,75;	0,0;	0,0
292,52789306640625;	211,5;	0,0;	0,0
292,5585632324219;	223,5;	0,0;	0,0
292,5892333984375;	253,75;	0,0;	0,0
292,6198425292969;	336,75;	0,0;	0,0
292,6505126953125;	269,25;	0,0;	0,0
292,68115234375;	180,75;	0,0;	0,0
292,7117919921875;	156,25;	0,0;	0,0
292,74237060546875;	182,25;	0,0;	0,0
292,7729797363281;	175,75;	0,0;	0,0
292,8035888671875;	207,5;	0,0;	0,0
292,83416748046875;	290,25;	0,0;	0,0
292,8647766113281;	400,5;	0,0;	0,0
292,8953552246094;	362,0;	0,0;	0,0
292,9259033203125;	210,75;	0,0;	0,0
292,95648193359375;	162,75;	0,0;	0,0
292,9870300292969;	161,5;	0,0;	0,0
293,0176086425781;	163,75;	0,0;	0,0
293,04815673828125;	169,0;	0,0;	0,0
293,0786437988281;	160,25;	0,0;	0,0
293,1092224121094;	167,75;	0,0;	0,0
293,1397399902344;	160,25;	0,0;	0,0
293,1702575683594;	174,25;	0,0;	0,0
293,20074462890625;	184,5;	0,0;	0,0
293,23126220703125;	178,5;	0,0;	0,0
293,2617492675781;	224,75;	0,0;	0,0
293,2922058105469;	201,5;	0,0;	0,0
293,32269287109375;	168,0;	0,0;	0,0
293,3531494140625;	159,75;	0,0;	0,0
293,3836364746094;	165,25;	0,0;	0,0
293,4140625;	167,75;	0,0;	0,0
293,44451904296875;	163,75;	0,0;	0,0
293,4749755859375;	161,0;	0,0;	0,0
293,50537109375;	200,75;	0,0;	0,0
293,53582763671875;	168,5;	0,0;	0,0
293,56622314453125;	203,25;	0,0;	0,0
293,5966491699219;	260,25;	0,0;	0,0
293,6270446777344;	454,5;	0,0;	0,0
293,65740966796875;	701,25;	0,0;	0,0
293,68780517578125;	475,75;	0,0;	0,0
293,7181701660156;	238,0;	0,0;	0,0
293,7485656738281;	212,0;	0,0;	0,0
293,7789001464844;	202,75;	0,0;	0,0
293,8092346191406;	171,5;	0,0;	0,0
293,839599609375;	210,75;	0,0;	0,0
293,86993408203125;	228,5;	0,0;	0,0
293,9002685546875;	261,0;	0,0;	0,0
293,93060302734375;	219,25;	0,0;	0,0
293,9609069824219;	164,75;	0,0;	0,0
293,9912109375;	166,25;	0,0;	0,0
294,0215148925781;	196,75;	0,0;	0,0
294,05181884765625;	217,0;	0,0;	0,0
294,08209228515625;	265,0;	0,0;	0,0
294,11236572265625;	292,75;	0,0;	0,0
294,14263916015625;	216,5;	0,0;	0,0
294,17291259765625;	168,75;	0,0;	0,0
294,2031555175781;	165,5;	0,0;	0,0
294,2333984375;	159,5;	0,0;	0,0
294,263671875;	184,25;	0,0;	0,0
294,29388427734375;	182,75;	0,0;	0,0
294,3240966796875;	189,75;	0,0;	0,0
294,3543395996094;	200,25;	0,0;	0,0
294,384521484375;	302,25;	0,0;	0,0
294,41473388671875;	359,5;	0,0;	0,0
294,4449157714844;	257,75;	0,0;	0,0
294,4751281738281;	191,25;	0,0;	0,0
294,5052795410156;	178,0;	0,0;	0,0
294,53546142578125;	164,5;	0,0;	0,0
294,5656433105469;	177,25;	0,0;	0,0
294,59576416015625;	160,25;	0,0;	0,0
294,6259460449219;	183,5;	0,0;	0,0
294,65606689453125;	211,5;	0,0;	0,0
294,6861877441406;	271,25;	0,0;	0,0
294,7163391113281;	516,0;	0,0;	0,0
294,7464294433594;	849,5;	0,0;	0,0
294,77655029296875;	626,75;	0,0;	0,0
294,806640625;	355,25;	0,0;	0,0
294,8367614746094;	257,0;	0,0;	0,0
294,8668518066406;	313,5;	0,0;	0,0
294,89691162109375;	322,75;	0,0;	0,0
294,927001953125;	234,25;	0,0;	0,0
294,9570617675781;	201,5;	0,0;	0,0
294,98712158203125;	211,5;	0,0;	0,0
295,0171813964844;	207,75;	0,0;	0,0
295,04718017578125;	195,25;	0,0;	0,0
295,0772399902344;	165,5;	0,0;	0,0
295,1072692871094;	196,25;	0,0;	0,0
295,1372985839844;	177,75;	0,0;	0,0
295,16729736328125;	154,25;	0,0;	0,0
295,1972961425781;	156,5;	0,0;	0,0
295,227294921875;	178,75;	0,0;	0,0
295,2572937011719;	188,5;	0,0;	0,0
295,2872619628906;	247,75;	0,0;	0,0
295,3172607421875;	379,0;	0,0;	0,0
295,3471984863281;	672,75;	0,0;	0,0
295,377197265625;	624,25;	0,0;	0,0
295,4071044921875;	309,75;	0,0;	0,0
295,43707275390625;	200,25;	0,0;	0,0
295,46697998046875;	175,5;	0,0;	0,0
295,4969482421875;	167,25;	0,0;	0,0
295,52685546875;	161,5;	0,0;	0,0
295,5567626953125;	170,25;	0,0;	0,0
295,586669921875;	178,5;	0,0;	0,0
295,6165466308594;	179,75;	0,0;	0,0
295,646484375;	212,5;	0,0;	0,0
295,6763000488281;	348,25;	0,0;	0,0
295,7061767578125;	503,0;	0,0;	0,0
295,736083984375;	312,75;	0,0;	0,0
295,76593017578125;	207,25;	0,0;	0,0
295,7957763671875;	181,25;	0,0;	0,0
295,82562255859375;	168,0;	0,0;	0,0
295,8554382324219;	189,0;	0,0;	0,0
295,8852844238281;	190,75;	0,0;	0,0
295,91510009765625;	227,0;	0,0;	0,0
295,9449157714844;	293,5;	0,0;	0,0
295,9747314453125;	304,0;	0,0;	0,0
296,0044860839844;	217,5;	0,0;	0,0
296,0343017578125;	176,25;	0,0;	0,0
296,0640869140625;	180,0;	0,0;	0,0
296,0938720703125;	185,25;	0,0;	0,0
296,1236267089844;	184,0;	0,0;	0,0
296,1533508300781;	163,25;	0,0;	0,0
296,1831359863281;	150,0;	0,0;	0,0
296,2128601074219;	190,0;	0,0;	0,0
296,24261474609375;	152,0;	0,0;	0,0
296,2723388671875;	173,5;	0,0;	0,0
296,30206298828125;	159,0;	0,0;	0,0
296,331787109375;	171,0;	0,0;	0,0
296,36151123046875;	185,0;	0,0;	0,0
296,3912048339844;	217,5;	0,0;	0,0
296,4208679199219;	251,75;	0,0;	0,0
296,4505615234375;	346,5;	0,0;	0,0
296,4802551269531;	481,0;	0,0;	0,0
296,5099182128906;	393,5;	0,0;	0,0
296,5395812988281;	257,25;	0,0;	0,0
296,5691833496094;	221,75;	0,0;	0,0
296,598876953125;	332,25;	0,0;	0,0
296,62847900390625;	671,0;	0,0;	0,0
296,6581115722656;	1050,25;	0,0;	0,0
296,687744140625;	701,0;	0,0;	0,0
296,71734619140625;	279,75;	0,0;	0,0
296,7469482421875;	190,0;	0,0;	0,0
296,77655029296875;	202,5;	0,0;	0,0
296,80615234375;	189,5;	0,0;	0,0
296,8357238769531;	192,5;	0,0;	0,0
296,8652648925781;	219,75;	0,0;	0,0
296,8948669433594;	329,5;	0,0;	0,0
296,9244079589844;	384,25;	0,0;	0,0
296,9539794921875;	473,75;	0,0;	0,0
296,9835205078125;	553,75;	0,0;	0,0
297,0130615234375;	402,25;	0,0;	0,0
297,0425720214844;	227,25;	0,0;	0,0
297,0721130371094;	176,0;	0,0;	0,0
297,1016540527344;	172,25;	0,0;	0,0
297,131103515625;	178,25;	0,0;	0,0
297,16064453125;	192,5;	0,0;	0,0
297,19012451171875;	219,0;	0,0;	0,0
297,2196044921875;	292,0;	0,0;	0,0
297,24908447265625;	534,0;	0,0;	0,0
297,2785339355469;	1068,5;	0,0;	0,0
297,3080139160156;	864,25;	0,0;	0,0
297,33746337890625;	375,5;	0,0;	0,0
297,3669128417969;	190,0;	0,0;	0,0
297,3963317871094;	170,5;	0,0;	0,0
297,4257507324219;	171,25;	0,0;	0,0
297,4551696777344;	150,5;	0,0;	0,0
297,4845886230469;	157,25;	0,0;	0,0
297,5140075683594;	160,5;	0,0;	0,0
297,54339599609375;	168,75;	0,0;	0,0
297,5727844238281;	178,0;	0,0;	0,0
297,6021728515625;	184,75;	0,0;	0,0
297,63153076171875;	177,5;	0,0;	0,0
297,6609191894531;	157,75;	0,0;	0,0
297,6902770996094;	156,25;	0,0;	0,0
297,7196044921875;	163,0;	0,0;	0,0
297,74896240234375;	152,75;	0,0;	0,0
297,7782897949219;	144,75;	0,0;	0,0
297,8076477050781;	160,25;	0,0;	0,0
297,8369445800781;	165,5;	0,0;	0,0
297,8662414550781;	195,5;	0,0;	0,0
297,89556884765625;	212,25;	0,0;	0,0
297,9248352050781;	200,25;	0,0;	0,0
297,95416259765625;	184,5;	0,0;	0,0
297,9834289550781;	180,25;	0,0;	0,0
298,0126953125;	184,25;	0,0;	0,0
298,0419616699219;	198,0;	0,0;	0,0
298,07122802734375;	269,0;	0,0;	0,0
298,1004943847656;	449,25;	0,0;	0,0
298,1297302246094;	441,0;	0,0;	0,0
298,1589660644531;	301,0;	0,0;	0,0
298,1882019042969;	256,5;	0,0;	0,0
298,2173767089844;	196,5;	0,0;	0,0
298,2466125488281;	237,5;	0,0;	0,0
298,27581787109375;	326,5;	0,0;	0,0
298,3050231933594;	661,0;	0,0;	0,0
298,3341979980469;	857,25;	0,0;	0,0
298,3634338378906;	491,25;	0,0;	0,0
298,392578125;	298,75;	0,0;	0,0
298,42169189453125;	432,25;	0,0;	0,0
298,4508972167969;	676,5;	0,0;	0,0
298,48004150390625;	544,5;	0,0;	0,0
298,5091857910156;	373,5;	0,0;	0,0
298,538330078125;	393,75;	0,0;	0,0
298,56744384765625;	268,0;	0,0;	0,0
298,5965576171875;	191,75;	0,0;	0,0
298,62567138671875;	211,75;	0,0;	0,0
298,65478515625;	219,75;	0,0;	0,0
298,6838684082031;	301,25;	0,0;	0,0
298,71295166015625;	302,5;	0,0;	0,0
298,7420349121094;	200,75;	0,0;	0,0
298,7711181640625;	181,75;	0,0;	0,0
298,8002014160156;	169,75;	0,0;	0,0
298,8292236328125;	156,0;	0,0;	0,0
298,8582763671875;	158,25;	0,0;	0,0
298,8873291015625;	164,25;	0,0;	0,0
298,9163513183594;	171,75;	0,0;	0,0
298,9454040527344;	167,25;	0,0;	0,0
298,9743957519531;	198,0;	0,0;	0,0
299,00341796875;	239,0;	0,0;	0,0
299,03240966796875;	191,0;	0,0;	0,0
299,0613708496094;	163,75;	0,0;	0,0
299,0904235839844;	169,0;	0,0;	0,0
299,119384765625;	174,5;	0,0;	0,0
299,1483459472656;	194,0;	0,0;	0,0
299,17730712890625;	190,5;	0,0;	0,0
299,20623779296875;	183,25;	0,0;	0,0
299,2351989746094;	160,5;	0,0;	0,0
299,2641296386719;	172,75;	0,0;	0,0
299,2930908203125;	166,0;	0,0;	0,0
299,3219909667969;	201,25;	0,0;	0,0
299,3509521484375;	245,5;	0,0;	0,0
299,3798522949219;	532,75;	0,0;	0,0
299,40875244140625;	886,25;	0,0;	0,0
299,4376220703125;	659,5;	0,0;	0,0
299,4665222167969;	275,0;	0,0;	0,0
299,4953918457031;	182,25;	0,0;	0,0
299,5242614746094;	195,25;	0,0;	0,0
299,5531005859375;	168,0;	0,0;	0,0
299,5820007324219;	169,75;	0,0;	0,0
299,6108093261719;	205,5;	0,0;	0,0
299,63970947265625;	172,0;	0,0;	0,0
299,66851806640625;	170,5;	0,0;	0,0
299,69732666015625;	177,0;	0,0;	0,0
299,72613525390625;	172,75;	0,0;	0,0
299,75494384765625;	177,25;	0,0;	0,0
299,78375244140625;	159,0;	0,0;	0,0
299,8125305175781;	171,25;	0,0;	0,0
299,84130859375;	210,0;	0,0;	0,0
299,8700866699219;	293,25;	0,0;	0,0
299,89886474609375;	545,5;	0,0;	0,0
299,9276428222656;	652,5;	0,0;	0,0
299,9563903808594;	464,0;	0,0;	0,0
299,9851379394531;	320,5;	0,0;	0,0
300,01385498046875;	426,0;	0,0;	0,0
300,0426025390625;	717,75;	0,0;	0,0
300,0713195800781;	808,75;	0,0;	0,0
300,10003662109375;	475,0;	0,0;	0,0
300,1287536621094;	227,75;	0,0;	0,0
300,1574401855469;	226,0;	0,0;	0,0
300,1861267089844;	249,75;	0,0;	0,0
300,2148132324219;	372,25;	0,0;	0,0
300,2434997558594;	471,0;	0,0;	0,0
300,2721862792969;	408,75;	0,0;	0,0
300,3008117675781;	303,5;	0,0;	0,0
300,3294982910156;	190,25;	0,0;	0,0
300,3581237792969;	192,0;	0,0;	0,0
300,3867492675781;	165,0;	0,0;	0,0
300,4153747558594;	155,75;	0,0;	0,0
300,4440002441406;	175,25;	0,0;	0,0
300,4726257324219;	156,5;	0,0;	0,0
300,5012512207031;	187,5;	0,0;	0,0
300,52978515625;	167,0;	0,0;	0,0
300,55841064453125;	168,25;	0,0;	0,0
300,5870056152344;	163,5;	0,0;	0,0
300,6155700683594;	185,75;	0,0;	0,0
300,6441345214844;	229,25;	0,0;	0,0
300,67266845703125;	369,0;	0,0;	0,0
300,7012634277344;	415,5;	0,0;	0,0
300,7297668457031;	365,75;	0,0;	0,0
300,75830078125;	514,75;	0,0;	0,0
300,786865234375;	698,0;	0,0;	0,0
300,8153381347656;	423,0;	0,0;	0,0
300,8438720703125;	252,25;	0,0;	0,0
300,87237548828125;	284,75;	0,0;	0,0
300,90087890625;	407,75;	0,0;	0,0
300,9293518066406;	522,0;	0,0;	0,0
300,95782470703125;	339,5;	0,0;	0,0
300,9862976074219;	204,0;	0,0;	0,0
301,0147705078125;	172,25;	0,0;	0,0
301,0432434082031;	178,25;	0,0;	0,0
301,0716552734375;	183,5;	0,0;	0,0
301,1001281738281;	228,25;	0,0;	0,0
301,1285705566406;	235,5;	0,0;	0,0
301,1569519042969;	192,5;	0,0;	0,0
301,1853942871094;	183,0;	0,0;	0,0
301,2137756347656;	162,75;	0,0;	0,0
301,2422180175781;	169,0;	0,0;	0,0
301,2705993652344;	166,75;	0,0;	0,0
301,2989807128906;	155,25;	0,0;	0,0
301,3273620605469;	169,5;	0,0;	0,0
301,355712890625;	139,25;	0,0;	0,0
301,38409423828125;	150,0;	0,0;	0,0
301,4124450683594;	174,25;	0,0;	0,0
301,4407958984375;	178,0;	0,0;	0,0
301,4691162109375;	171,25;	0,0;	0,0
301,4974365234375;	168,0;	0,0;	0,0
301,5257873535156;	198,0;	0,0;	0,0
301,5541076660156;	247,5;	0,0;	0,0
301,5824279785156;	283,5;	0,0;	0,0
301,6106872558594;	262,0;	0,0;	0,0
301,63897705078125;	187,5;	0,0;	0,0
301,66729736328125;	192,0;	0,0;	0,0
301,6955261230469;	266,25;	0,0;	0,0
301,7238464355469;	380,75;	0,0;	0,0
301,7520751953125;	359,0;	0,0;	0,0
301,78033447265625;	237,75;	0,0;	0,0
301,80859375;	227,5;	0,0;	0,0
301,8367919921875;	312,5;	0,0;	0,0
301,86505126953125;	459,25;	0,0;	0,0
301,89324951171875;	393,0;	0,0;	0,0
301,92144775390625;	283,25;	0,0;	0,0
301,9496765136719;	364,25;	0,0;	0,0
301,9778747558594;	648,25;	0,0;	0,0
302,0060729980469;	1431,5;	0,0;	0,0
302,03424072265625;	2061,0;	0,0;	0,0
302,06243896484375;	1750,5;	0,0;	0,0
302,0906066894531;	1170,5;	0,0;	0,0
302,11871337890625;	578,5;	0,0;	0,0
302,1468811035156;	279,75;	0,0;	0,0
302,1750183105469;	187,0;	0,0;	0,0
302,2031555175781;	198,25;	0,0;	0,0
302,2312927246094;	192,75;	0,0;	0,0
302,2593994140625;	191,75;	0,0;	0,0
302,28753662109375;	169,25;	0,0;	0,0
302,31561279296875;	188,5;	0,0;	0,0
302,3437194824219;	298,5;	0,0;	0,0
302,3717956542969;	421,75;	0,0;	0,0
302,39990234375;	290,25;	0,0;	0,0
302,4279479980469;	217,5;	0,0;	0,0
302,45599365234375;	195,25;	0,0;	0,0
302,48406982421875;	276,25;	0,0;	0,0
302,5120849609375;	505,25;	0,0;	0,0
302,5401611328125;	823,0;	0,0;	0,0
302,56817626953125;	736,75;	0,0;	0,0
302,59619140625;	472,5;	0,0;	0,0
302,6242370605469;	368,0;	0,0;	0,0
302,6522216796875;	231,5;	0,0;	0,0
302,68023681640625;	187,0;	0,0;	0,0
302,7082214355469;	154,75;	0,0;	0,0
302,7362060546875;	173,25;	0,0;	0,0
302,7641906738281;	166,5;	0,0;	0,0
302,7921447753906;	166,25;	0,0;	0,0
302,8200988769531;	168,0;	0,0;	0,0
302,8480529785156;	178,75;	0,0;	0,0
302,8760070800781;	174,0;	0,0;	0,0
302,9039306640625;	163,75;	0,0;	0,0
302,9318542480469;	198,5;	0,0;	0,0
302,95977783203125;	272,5;	0,0;	0,0
302,9876708984375;	302,25;	0,0;	0,0
303,0155944824219;	242,0;	0,0;	0,0
303,0434875488281;	226,75;	0,0;	0,0
303,0713806152344;	313,25;	0,0;	0,0
303,0992736816406;	360,75;	0,0;	0,0
303,12713623046875;	356,0;	0,0;	0,0
303,155029296875;	286,5;	0,0;	0,0
303,182861328125;	202,25;	0,0;	0,0
303,2107238769531;	147,0;	0,0;	0,0
303,238525390625;	160,75;	0,0;	0,0
303,2663879394531;	159,5;	0,0;	0,0
303,294189453125;	170,25;	0,0;	0,0
303,322021484375;	147,0;	0,0;	0,0
303,349853515625;	155,0;	0,0;	0,0
303,3776550292969;	167,25;	0,0;	0,0
303,4054260253906;	148,25;	0,0;	0,0
303,4332275390625;	171,5;	0,0;	0,0
303,4609680175781;	168,5;	0,0;	0,0
303,48876953125;	172,5;	0,0;	0,0
303,5165100097656;	174,0;	0,0;	0,0
303,54425048828125;	175,5;	0,0;	0,0
303,572021484375;	171,25;	0,0;	0,0
303,5997619628906;	173,25;	0,0;	0,0
303,62750244140625;	199,25;	0,0;	0,0
303,6551818847656;	287,5;	0,0;	0,0
303,6828918457031;	621,75;	0,0;	0,0
303,71063232421875;	774,0;	0,0;	0,0
303,7383117675781;	528,0;	0,0;	0,0
303,7660217285156;	237,0;	0,0;	0,0
303,7936706542969;	177,25;	0,0;	0,0
303,82135009765625;	173,75;	0,0;	0,0
303,8490295410156;	164,5;	0,0;	0,0
303,8766784667969;	166,0;	0,0;	0,0
303,90435791015625;	164,5;	0,0;	0,0
303,9319763183594;	171,0;	0,0;	0,0
303,9596252441406;	170,25;	0,0;	0,0
303,98724365234375;	253,75;	0,0;	0,0
304,014892578125;	301,5;	0,0;	0,0
304,04248046875;	254,25;	0,0;	0,0
304,070068359375;	198,0;	0,0;	0,0
304,0976867675781;	245,0;	0,0;	0,0
304,1252746582031;	353,25;	0,0;	0,0
304,1528625488281;	451,75;	0,0;	0,0
304,180419921875;	384,0;	0,0;	0,0
304,2079772949219;	312,5;	0,0;	0,0
304,23553466796875;	305,0;	0,0;	0,0
304,2630920410156;	279,0;	0,0;	0,0
304,2906188964844;	168,25;	0,0;	0,0
304,31817626953125;	165,5;	0,0;	0,0
304,3456726074219;	165,25;	0,0;	0,0
304,3731994628906;	160,0;	0,0;	0,0
304,4006652832031;	163,5;	0,0;	0,0
304,42822265625;	173,0;	0,0;	0,0
304,4556884765625;	204,25;	0,0;	0,0
304,483154296875;	184,5;	0,0;	0,0
304,5106506347656;	166,5;	0,0;	0,0
304,5381164550781;	164,25;	0,0;	0,0
304,5655822753906;	166,5;	0,0;	0,0
304,593017578125;	185,5;	0,0;	0,0
304,6204528808594;	188,25;	0,0;	0,0
304,6479187011719;	240,75;	0,0;	0,0
304,6753234863281;	340,0;	0,0;	0,0
304,7027587890625;	661,25;	0,0;	0,0
304,73016357421875;	854,75;	0,0;	0,0
304,757568359375;	586,0;	0,0;	0,0
304,78497314453125;	265,75;	0,0;	0,0
304,81231689453125;	194,0;	0,0;	0,0
304,8397216796875;	187,0;	0,0;	0,0
304,8670654296875;	169,75;	0,0;	0,0
304,89447021484375;	181,0;	0,0;	0,0
304,92181396484375;	158,25;	0,0;	0,0
304,9491882324219;	164,5;	0,0;	0,0
304,97650146484375;	157,5;	0,0;	0,0
305,0038146972656;	160,75;	0,0;	0,0
305,0311584472656;	182,5;	0,0;	0,0
305,0584716796875;	194,5;	0,0;	0,0
305,0857849121094;	156,75;	0,0;	0,0
305,1130676269531;	163,25;	0,0;	0,0
305,1403503417969;	146,75;	0,0;	0,0
305,1676330566406;	149,75;	0,0;	0,0
305,1949157714844;	162,75;	0,0;	0,0
305,22222900390625;	166,75;	0,0;	0,0
305,24945068359375;	162,5;	0,0;	0,0
305,27667236328125;	200,25;	0,0;	0,0
305,303955078125;	172,75;	0,0;	0,0
305,3311767578125;	179,75;	0,0;	0,0
305,3583984375;	146,75;	0,0;	0,0
305,3856201171875;	178,25;	0,0;	0,0
305,4128112792969;	171,0;	0,0;	0,0
305,4400329589844;	184,75;	0,0;	0,0
305,46722412109375;	218,75;	0,0;	0,0
305,4944152832031;	243,75;	0,0;	0,0
305,5215759277344;	206,5;	0,0;	0,0
305,54876708984375;	196,5;	0,0;	0,0
305,575927734375;	177,25;	0,0;	0,0
305,6030578613281;	186,25;	0,0;	0,0
305,6302490234375;	227,75;	0,0;	0,0
305,6573791503906;	316,75;	0,0;	0,0
305,6844787597656;	586,75;	0,0;	0,0
305,7116394042969;	919,0;	0,0;	0,0
305,73876953125;	626,5;	0,0;	0,0
305,7658386230469;	303,75;	0,0;	0,0
305,7929382324219;	236,25;	0,0;	0,0
305,820068359375;	336,75;	0,0;	0,0
305,84710693359375;	544,5;	0,0;	0,0
305,87420654296875;	838,25;	0,0;	0,0
305,9012756347656;	637,75;	0,0;	0,0
305,9283142089844;	290,5;	0,0;	0,0
305,95538330078125;	186,25;	0,0;	0,0
305,982421875;	177,25;	0,0;	0,0
306,00946044921875;	176,0;	0,0;	0,0
306,0364990234375;	182,75;	0,0;	0,0
306,0634765625;	174,25;	0,0;	0,0
306,09051513671875;	181,0;	0,0;	0,0
306,11749267578125;	155,5;	0,0;	0,0
306,14453125;	167,5;	0,0;	0,0
306,1714782714844;	182,25;	0,0;	0,0
306,1984558105469;	194,0;	0,0;	0,0
306,2254333496094;	168,5;	0,0;	0,0
306,25238037109375;	166,25;	0,0;	0,0
306,2793884277344;	151,25;	0,0;	0,0
306,3063049316406;	131,0;	0,0;	0,0
306,3332214355469;	156,5;	0,0;	0,0
306,36016845703125;	154,75;	0,0;	0,0
306,3870849609375;	157,5;	0,0;	0,0
306,4140319824219;	165,5;	0,0;	0,0
306,44091796875;	156,5;	0,0;	0,0
306,4678039550781;	162,75;	0,0;	0,0
306,49468994140625;	142,75;	0,0;	0,0
306,5215759277344;	165,75;	0,0;	0,0
306,5484619140625;	154,75;	0,0;	0,0
306,5753173828125;	182,25;	0,0;	0,0
306,6021728515625;	203,25;	0,0;	0,0
306,6290283203125;	242,25;	0,0;	0,0
306,6558837890625;	434,75;	0,0;	0,0
306,6827087402344;	656,75;	0,0;	0,0
306,7095031738281;	598,5;	0,0;	0,0
306,7363586425781;	313,0;	0,0;	0,0
306,7631530761719;	220,5;	0,0;	0,0
306,7899475097656;	235,25;	0,0;	0,0
306,8167724609375;	167,75;	0,0;	0,0
306,843505859375;	164,75;	0,0;	0,0
306,87030029296875;	157,5;	0,0;	0,0
306,8970642089844;	149,25;	0,0;	0,0
306,9238586425781;	160,0;	0,0;	0,0
306,9505920410156;	155,25;	0,0;	0,0
306,9773254394531;	166,25;	0,0;	0,0
307,00408935546875;	155,75;	0,0;	0,0
307,0307922363281;	174,5;	0,0;	0,0
307,0575256347656;	153,5;	0,0;	0,0
307,084228515625;	160,5;	0,0;	0,0
307,1109313964844;	154,5;	0,0;	0,0
307,13763427734375;	146,75;	0,0;	0,0
307,164306640625;	156,25;	0,0;	0,0
307,1910095214844;	159,25;	0,0;	0,0
307,2176818847656;	165,25;	0,0;	0,0
307,24432373046875;	151,25;	0,0;	0,0
307,27099609375;	157,25;	0,0;	0,0
307,2976379394531;	162,0;	0,0;	0,0
307,3243103027344;	163,0;	0,0;	0,0
307,35089111328125;	177,5;	0,0;	0,0
307,37750244140625;	171,0;	0,0;	0,0
307,4041442871094;	183,0;	0,0;	0,0
307,43072509765625;	168,5;	0,0;	0,0
307,4573669433594;	207,0;	0,0;	0,0
307,48394775390625;	232,25;	0,0;	0,0
307,510498046875;	384,0;	0,0;	0,0
307,5370788574219;	563,0;	0,0;	0,0
307,5636901855469;	425,75;	0,0;	0,0
307,5902404785156;	237,0;	0,0;	0,0
307,61676025390625;	181,0;	0,0;	0,0
307,643310546875;	174,0;	0,0;	0,0
307,6698303222656;	200,5;	0,0;	0,0
307,6963806152344;	182,75;	0,0;	0,0
307,722900390625;	177,5;	0,0;	0,0
307,7493896484375;	193,0;	0,0;	0,0
307,7759094238281;	193,0;	0,0;	0,0
307,8023986816406;	196,25;	0,0;	0,0
307,82891845703125;	181,75;	0,0;	0,0
307,8553466796875;	160,75;	0,0;	0,0
307,8818359375;	160,5;	0,0;	0,0
307,9082946777344;	156,5;	0,0;	0,0
307,93475341796875;	166,0;	0,0;	0,0
307,961181640625;	181,75;	0,0;	0,0
307,9876403808594;	167,75;	0,0;	0,0
308,0140380859375;	174,75;	0,0;	0,0
308,04046630859375;	179,75;	0,0;	0,0
308,0668640136719;	158,5;	0,0;	0,0
308,09332275390625;	165,25;	0,0;	0,0
308,11968994140625;	182,75;	0,0;	0,0
308,1460876464844;	203,25;	0,0;	0,0
308,1724548339844;	284,75;	0,0;	0,0
308,1988220214844;	319,75;	0,0;	0,0
308,2251892089844;	214,0;	0,0;	0,0
308,2515563964844;	188,25;	0,0;	0,0
308,27789306640625;	201,0;	0,0;	0,0
308,3042297363281;	266,25;	0,0;	0,0
308,33056640625;	405,25;	0,0;	0,0
308,3569030761719;	384,0;	0,0;	0,0
308,3832092285156;	258,0;	0,0;	0,0
308,40948486328125;	158,0;	0,0;	0,0
308,435791015625;	153,0;	0,0;	0,0
308,46209716796875;	165,0;	0,0;	0,0
308,4884033203125;	153,5;	0,0;	0,0
308,5146484375;	152,0;	0,0;	0,0
308,54095458984375;	181,5;	0,0;	0,0
308,56719970703125;	158,5;	0,0;	0,0
308,59344482421875;	155,0;	0,0;	0,0
308,61968994140625;	149,75;	0,0;	0,0
308,6458740234375;	150,5;	0,0;	0,0
308,6721496582031;	152,25;	0,0;	0,0
308,6983642578125;	153,75;	0,0;	0,0
308,72454833984375;	161,0;	0,0;	0,0
308,7507629394531;	160,25;	0,0;	0,0
308,77691650390625;	150,75;	0,0;	0,0
308,80316162109375;	137,5;	0,0;	0,0
308,8293151855469;	160,25;	0,0;	0,0
308,8554992675781;	158,0;	0,0;	0,0
308,88165283203125;	145,5;	0,0;	0,0
308,90777587890625;	161,75;	0,0;	0,0
308,9339294433594;	170,75;	0,0;	0,0
308,9600524902344;	175,5;	0,0;	0,0
308,9862060546875;	158,5;	0,0;	0,0
309,0123291015625;	163,75;	0,0;	0,0
309,0384216308594;	170,75;	0,0;	0,0
309,0645446777344;	189,25;	0,0;	0,0
309,0906066894531;	271,75;	0,0;	0,0
309,1167297363281;	352,25;	0,0;	0,0
309,1427917480469;	320,75;	0,0;	0,0
309,1688537597656;	240,75;	0,0;	0,0
309,1949462890625;	245,5;	0,0;	0,0
309,2209777832031;	374,75;	0,0;	0,0
309,2470397949219;	425,5;	0,0;	0,0
309,2730712890625;	302,75;	0,0;	0,0
309,299072265625;	219,25;	0,0;	0,0
309,3251037597656;	199,75;	0,0;	0,0
309,35113525390625;	171,75;	0,0;	0,0
309,37713623046875;	193,25;	0,0;	0,0
309,4031066894531;	165,75;	0,0;	0,0
309,42913818359375;	172,0;	0,0;	0,0
309,4551086425781;	175,75;	0,0;	0,0
309,4810791015625;	175,25;	0,0;	0,0
309,5070495605469;	155,0;	0,0;	0,0
309,5329895019531;	160,75;	0,0;	0,0
309,5589599609375;	160,5;	0,0;	0,0
309,5848693847656;	164,75;	0,0;	0,0
309,61083984375;	169,5;	0,0;	0,0
309,63671875;	160,0;	0,0;	0,0
309,66265869140625;	152,75;	0,0;	0,0
309,6885681152344;	162,25;	0,0;	0,0
309,7144470214844;	177,25;	0,0;	0,0
309,7403564453125;	158,75;	0,0;	0,0
309,7662048339844;	179,0;	0,0;	0,0
309,7920837402344;	193,75;	0,0;	0,0
309,8179626464844;	173,5;	0,0;	0,0
309,84381103515625;	159,5;	0,0;	0,0
309,86968994140625;	187,25;	0,0;	0,0
309,8955078125;	217,5;	0,0;	0,0
309,9213562011719;	337,75;	0,0;	0,0
309,9471740722656;	665,75;	0,0;	0,0
309,9729919433594;	768,75;	0,0;	0,0
309,9988098144531;	748,0;	0,0;	0,0
310,02459716796875;	605,25;	0,0;	0,0
310,0503845214844;	507,25;	0,0;	0,0
310,076171875;	311,75;	0,0;	0,0
310,10198974609375;	207,75;	0,0;	0,0
310,12774658203125;	178,0;	0,0;	0,0
310,1534729003906;	185,0;	0,0;	0,0
310,17919921875;	184,5;	0,0;	0,0
310,2049865722656;	171,25;	0,0;	0,0
310,2307434082031;	173,75;	0,0;	0,0
310,2564392089844;	156,0;	0,0;	0,0
310,28216552734375;	150,5;	0,0;	0,0
310,307861328125;	152,75;	0,0;	0,0
310,33355712890625;	151,5;	0,0;	0,0
310,3592834472656;	160,25;	0,0;	0,0
310,38494873046875;	147,5;	0,0;	0,0
310,4106140136719;	162,25;	0,0;	0,0
310,4363098144531;	150,25;	0,0;	0,0
310,4619445800781;	154,75;	0,0;	0,0
310,4876403808594;	147,5;	0,0;	0,0
310,51324462890625;	166,25;	0,0;	0,0
310,53887939453125;	141,5;	0,0;	0,0
310,56451416015625;	162,0;	0,0;	0,0
310,5901184082031;	151,25;	0,0;	0,0
310,6157531738281;	148,25;	0,0;	0,0
310,641357421875;	160,0;	0,0;	0,0
310,66693115234375;	128,25;	0,0;	0,0
310,6925354003906;	164,5;	0,0;	0,0
310,71807861328125;	145,0;	0,0;	0,0
310,7436828613281;	143,5;	0,0;	0,0
310,76922607421875;	151,5;	0,0;	0,0
310,7947692871094;	159,0;	0,0;	0,0
310,8203430175781;	160,25;	0,0;	0,0
310,84588623046875;	163,0;	0,0;	0,0
310,87139892578125;	153,75;	0,0;	0,0
310,89691162109375;	128,25;	0,0;	0,0
310,92242431640625;	152,0;	0,0;	0,0
310,9479675292969;	152,5;	0,0;	0,0
310,9734802246094;	162,0;	0,0;	0,0
310,9989318847656;	169,75;	0,0;	0,0
311,0244140625;	170,5;	0,0;	0,0
311,0498352050781;	168,0;	0,0;	0,0
311,0753479003906;	173,75;	0,0;	0,0
311,100830078125;	165,5;	0,0;	0,0
311,1262512207031;	164,25;	0,0;	0,0
311,15167236328125;	169,75;	0,0;	0,0
311,1771240234375;	161,0;	0,0;	0,0
311,2025146484375;	164,75;	0,0;	0,0
311,2279357910156;	173,75;	0,0;	0,0
311,25335693359375;	173,0;	0,0;	0,0
311,27874755859375;	174,75;	0,0;	0,0
311,30413818359375;	152,0;	0,0;	0,0
311,3294982910156;	161,75;	0,0;	0,0
311,3548889160156;	160,75;	0,0;	0,0
311,3802490234375;	153,0;	0,0;	0,0
311,40557861328125;	160,25;	0,0;	0,0
311,43096923828125;	176,0;	0,0;	0,0
311,456298828125;	151,75;	0,0;	0,0
311,4816589355469;	163,75;	0,0;	0,0
311,5069274902344;	145,5;	0,0;	0,0
311,5322570800781;	161,5;	0,0;	0,0
311,55755615234375;	161,0;	0,0;	0,0
311,5828552246094;	168,75;	0,0;	0,0
311,608154296875;	197,75;	0,0;	0,0
311,6334533691406;	225,75;	0,0;	0,0
311,65869140625;	172,75;	0,0;	0,0
311,6839904785156;	157,5;	0,0;	0,0
311,709228515625;	163,75;	0,0;	0,0
311,7344970703125;	153,25;	0,0;	0,0
311,75970458984375;	173,25;	0,0;	0,0
311,7849426269531;	151,75;	0,0;	0,0
311,8101806640625;	163,75;	0,0;	0,0
311,8354187011719;	168,75;	0,0;	0,0
311,8606262207031;	155,0;	0,0;	0,0
311,88580322265625;	158,0;	0,0;	0,0
311,9110107421875;	185,75;	0,0;	0,0
311,9361572265625;	172,75;	0,0;	0,0
311,96136474609375;	163,25;	0,0;	0,0
311,98651123046875;	176,0;	0,0;	0,0
312,01165771484375;	186,0;	0,0;	0,0
312,0368347167969;	186,25;	0,0;	0,0
312,06195068359375;	165,25;	0,0;	0,0
312,08709716796875;	168,5;	0,0;	0,0
312,1122131347656;	157,0;	0,0;	0,0
312,1373291015625;	179,5;	0,0;	0,0
312,1624450683594;	159,5;	0,0;	0,0
312,1875305175781;	163,0;	0,0;	0,0
312,212646484375;	141,75;	0,0;	0,0
312,2377014160156;	149,5;	0,0;	0,0
312,2627868652344;	166,75;	0,0;	0,0
312,2878723144531;	144,25;	0,0;	0,0
312,3128967285156;	150,0;	0,0;	0,0
312,3379821777344;	156,75;	0,0;	0,0
312,3630065917969;	172,25;	0,0;	0,0
312,3880310058594;	150,25;	0,0;	0,0
312,4130554199219;	155,0;	0,0;	0,0
312,4380798339844;	162,0;	0,0;	0,0
312,4631042480469;	168,75;	0,0;	0,0
312,48809814453125;	208,0;	0,0;	0,0
312,5130615234375;	232,5;	0,0;	0,0
312,5380859375;	280,0;	0,0;	0,0
312,56304931640625;	213,0;	0,0;	0,0
312,5880126953125;	179,75;	0,0;	0,0
312,6129455566406;	174,5;	0,0;	0,0
312,6379089355469;	149,25;	0,0;	0,0
312,662841796875;	153,5;	0,0;	0,0
312,68780517578125;	153,0;	0,0;	0,0
312,71270751953125;	152,75;	0,0;	0,0
312,73760986328125;	138,75;	0,0;	0,0
312,7625427246094;	160,5;	0,0;	0,0
312,7874450683594;	133,75;	0,0;	0,0
312,8123474121094;	152,0;	0,0;	0,0
312,83721923828125;	155,25;	0,0;	0,0
312,862060546875;	171,25;	0,0;	0,0
312,886962890625;	156,75;	0,0;	0,0
312,91180419921875;	165,75;	0,0;	0,0
312,9366760253906;	158,5;	0,0;	0,0
312,9615173339844;	145,0;	0,0;	0,0
312,9862976074219;	143,5;	0,0;	0,0
313,01116943359375;	131,25;	0,0;	0,0
313,0359802246094;	147,75;	0,0;	0,0
313,060791015625;	135,25;	0,0;	0,0
313,0855712890625;	173,0;	0,0;	0,0
313,1103820800781;	159,75;	0,0;	0,0
313,1351623535156;	160,5;	0,0;	0,0
313,159912109375;	175,25;	0,0;	0,0
313,1846923828125;	178,5;	0,0;	0,0
313,2094421386719;	199,5;	0,0;	0,0
313,23419189453125;	179,25;	0,0;	0,0
313,2589416503906;	163,25;	0,0;	0,0
313,2836608886719;	165,5;	0,0;	0,0
313,30841064453125;	142,25;	0,0;	0,0
313,3331298828125;	177,75;	0,0;	0,0
313,3578186035156;	195,0;	0,0;	0,0
313,3825378417969;	211,0;	0,0;	0,0
313,4071960449219;	189,25;	0,0;	0,0
313,4319152832031;	156,0;	0,0;	0,0
313,4565734863281;	173,25;	0,0;	0,0
313,4812316894531;	162,0;	0,0;	0,0
313,50592041015625;	181,0;	0,0;	0,0
313,53057861328125;	175,5;	0,0;	0,0
313,5552062988281;	156,0;	0,0;	0,0
313,579833984375;	160,0;	0,0;	0,0
313,6044616699219;	159,0;	0,0;	0,0
313,62908935546875;	165,5;	0,0;	0,0
313,6537170410156;	160,75;	0,0;	0,0
313,67828369140625;	153,0;	0,0;	0,0
313,7028503417969;	156,5;	0,0;	0,0
313,72747802734375;	150,5;	0,0;	0,0
313,75201416015625;	151,75;	0,0;	0,0
313,776611328125;	157,75;	0,0;	0,0
313,8011474609375;	143,0;	0,0;	0,0
313,8257141113281;	164,75;	0,0;	0,0
313,8502502441406;	154,75;	0,0;	0,0
313,8747863769531;	152,25;	0,0;	0,0
313,8993225097656;	159,25;	0,0;	0,0
313,923828125;	161,5;	0,0;	0,0
313,94830322265625;	165,25;	0,0;	0,0
313,97283935546875;	166,75;	0,0;	0,0
313,997314453125;	159,5;	0,0;	0,0
314,0218200683594;	186,5;	0,0;	0,0
314,0462646484375;	178,75;	0,0;	0,0
314,07073974609375;	163,0;	0,0;	0,0
314,09521484375;	138,75;	0,0;	0,0
314,11962890625;	164,75;	0,0;	0,0
314,14410400390625;	150,25;	0,0;	0,0
314,16851806640625;	161,25;	0,0;	0,0
314,19293212890625;	169,0;	0,0;	0,0
314,21734619140625;	180,75;	0,0;	0,0
314,24176025390625;	170,75;	0,0;	0,0
314,26617431640625;	180,5;	0,0;	0,0
314,2905578613281;	156,0;	0,0;	0,0
314,31494140625;	170,5;	0,0;	0,0
314,33929443359375;	196,25;	0,0;	0,0
314,3636779785156;	191,75;	0,0;	0,0
314,3880310058594;	188,75;	0,0;	0,0
314,4123840332031;	184,5;	0,0;	0,0
314,4367370605469;	164,25;	0,0;	0,0
314,4610595703125;	181,5;	0,0;	0,0
314,4853820800781;	151,75;	0,0;	0,0
314,5096740722656;	160,25;	0,0;	0,0
314,53399658203125;	143,75;	0,0;	0,0
314,5583190917969;	162,0;	0,0;	0,0
314,58258056640625;	161,75;	0,0;	0,0
314,60687255859375;	175,25;	0,0;	0,0
314,6311340332031;	153,5;	0,0;	0,0
314,6553955078125;	149,75;	0,0;	0,0
314,6796569824219;	170,5;	0,0;	0,0
314,70391845703125;	169,25;	0,0;	0,0
314,7281799316406;	153,0;	0,0;	0,0
314,75238037109375;	163,25;	0,0;	0,0
314,7765808105469;	159,25;	0,0;	0,0
314,8008117675781;	164,25;	0,0;	0,0
314,82501220703125;	163,0;	0,0;	0,0
314,8492126464844;	137,5;	0,0;	0,0
314,8734130859375;	159,0;	0,0;	0,0
314,8975830078125;	148,0;	0,0;	0,0
314,9217529296875;	167,5;	0,0;	0,0
314,9459228515625;	144,0;	0,0;	0,0
314,9700927734375;	158,25;	0,0;	0,0
314,9942321777344;	148,5;	0,0;	0,0
315,0183410644531;	171,5;	0,0;	0,0
315,0425109863281;	154,75;	0,0;	0,0
315,06658935546875;	176,5;	0,0;	0,0
315,0907287597656;	196,0;	0,0;	0,0
315,1148376464844;	177,25;	0,0;	0,0
315,138916015625;	187,25;	0,0;	0,0
315,16302490234375;	155,25;	0,0;	0,0
315,1871032714844;	166,75;	0,0;	0,0
315,2111511230469;	166,0;	0,0;	0,0
315,2352294921875;	186,0;	0,0;	0,0
315,2593078613281;	185,0;	0,0;	0,0
315,2833251953125;	176,0;	0,0;	0,0
315,3074035644531;	188,75;	0,0;	0,0
315,3314208984375;	177,5;	0,0;	0,0
315,35540771484375;	202,5;	0,0;	0,0
315,3794250488281;	234,0;	0,0;	0,0
315,4034118652344;	225,5;	0,0;	0,0
315,4274597167969;	185,75;	0,0;	0,0
315,451416015625;	160,75;	0,0;	0,0
315,4753723144531;	152,75;	0,0;	0,0
315,4993591308594;	172,5;	0,0;	0,0
315,5233154296875;	168,75;	0,0;	0,0
315,54730224609375;	184,25;	0,0;	0,0
315,57122802734375;	190,25;	0,0;	0,0
315,59515380859375;	190,75;	0,0;	0,0
315,6191101074219;	0,0;	0,0;	0,0
