-0.5	1.5
Integration time [ms]:	1.05
Averaging Nr. [scans]:1
Smoothing Nr. [pixels]:0
Data measured with spectrometer [name]:b'1703274U8'
Wave	;Sample	;Dark	;Reference	;Scope	
[nm]	;[counts]	;[counts]	;[counts]	
 
309,952880859375;	190,75;	0,0;	0,0
309,98712158203125;	329,0;	0,0;	0,0
310,0213928222656;	349,75;	0,0;	0,0
310,05560302734375;	289,5;	0,0;	0,0
310,0898132324219;	190,5;	0,0;	0,0
310,1240539550781;	139,25;	0,0;	0,0
310,15826416015625;	126,0;	0,0;	0,0
310,19244384765625;	123,25;	0,0;	0,0
310,2266845703125;	112,75;	0,0;	0,0
310,2608642578125;	120,75;	0,0;	0,0
310,2950439453125;	119,0;	0,0;	0,0
310,3292236328125;	114,0;	0,0;	0,0
310,3633728027344;	128,5;	0,0;	0,0
310,3975524902344;	107,75;	0,0;	0,0
310,43170166015625;	100,75;	0,0;	0,0
310,4658508300781;	96,0;	0,0;	0,0
310,5;	120,5;	0,0;	0,0
310,5341491699219;	109,75;	0,0;	0,0
310,5682678222656;	111,75;	0,0;	0,0
310,6023864746094;	117,25;	0,0;	0,0
310,6365051269531;	107,0;	0,0;	0,0
310,67059326171875;	109,75;	0,0;	0,0
310,7046813964844;	111,75;	0,0;	0,0
310,7388000488281;	112,75;	0,0;	0,0
310,77288818359375;	112,0;	0,0;	0,0
310,80694580078125;	111,5;	0,0;	0,0
310,8410339355469;	97,25;	0,0;	0,0
310,8750915527344;	135,25;	0,0;	0,0
310,9091491699219;	104,25;	0,0;	0,0
310,9432067871094;	108,0;	0,0;	0,0
310,9772644042969;	104,25;	0,0;	0,0
311,01129150390625;	107,0;	0,0;	0,0
311,0452880859375;	121,5;	0,0;	0,0
311,079345703125;	106,0;	0,0;	0,0
311,11334228515625;	119,5;	0,0;	0,0
311,1473388671875;	116,0;	0,0;	0,0
311,1813659667969;	103,0;	0,0;	0,0
311,2153625488281;	104,25;	0,0;	0,0
311,24932861328125;	120,5;	0,0;	0,0
311,2833251953125;	97,75;	0,0;	0,0
311,3172912597656;	121,0;	0,0;	0,0
311,35125732421875;	100,0;	0,0;	0,0
311,3852233886719;	116,0;	0,0;	0,0
311,419189453125;	120,75;	0,0;	0,0
311,453125;	125,25;	0,0;	0,0
311,487060546875;	112,0;	0,0;	0,0
311,5209655761719;	123,0;	0,0;	0,0
311,55487060546875;	128,5;	0,0;	0,0
311,58880615234375;	119,25;	0,0;	0,0
311,6227111816406;	124,5;	0,0;	0,0
311,6566162109375;	141,0;	0,0;	0,0
311,6905212402344;	129,5;	0,0;	0,0
311,72442626953125;	118,75;	0,0;	0,0
311,75830078125;	115,5;	0,0;	0,0
311,79217529296875;	111,25;	0,0;	0,0
311,8260498046875;	111,5;	0,0;	0,0
311,8598937988281;	111,25;	0,0;	0,0
311,8937683105469;	113,25;	0,0;	0,0
311,9276123046875;	109,75;	0,0;	0,0
311,96142578125;	128,0;	0,0;	0,0
311,99530029296875;	115,25;	0,0;	0,0
312,02911376953125;	124,0;	0,0;	0,0
312,06292724609375;	131,5;	0,0;	0,0
312,09674072265625;	126,25;	0,0;	0,0
312,13055419921875;	118,0;	0,0;	0,0
312,164306640625;	124,0;	0,0;	0,0
312,1981201171875;	109,5;	0,0;	0,0
312,2319030761719;	120,75;	0,0;	0,0
312,2656555175781;	106,0;	0,0;	0,0
312,2994384765625;	110,0;	0,0;	0,0
312,33319091796875;	127,5;	0,0;	0,0
312,366943359375;	125,25;	0,0;	0,0
312,4007263183594;	93,25;	0,0;	0,0
312,4344482421875;	111,0;	0,0;	0,0
312,4681701660156;	135,5;	0,0;	0,0
312,5019226074219;	134,25;	0,0;	0,0
312,53564453125;	167,0;	0,0;	0,0
312,5693054199219;	178,5;	0,0;	0,0
312,6030578613281;	153,0;	0,0;	0,0
312,6367492675781;	123,75;	0,0;	0,0
312,67041015625;	131,5;	0,0;	0,0
312,7041320800781;	107,5;	0,0;	0,0
312,73779296875;	124,75;	0,0;	0,0
312,7714538574219;	118,0;	0,0;	0,0
312,8051452636719;	115,25;	0,0;	0,0
312,83880615234375;	113,75;	0,0;	0,0
312,8724060058594;	112,75;	0,0;	0,0
312,90606689453125;	118,25;	0,0;	0,0
312,939697265625;	104,0;	0,0;	0,0
312,97332763671875;	116,0;	0,0;	0,0
313,0069580078125;	118,75;	0,0;	0,0
313,0405578613281;	120,25;	0,0;	0,0
313,07415771484375;	113,5;	0,0;	0,0
313,10772705078125;	117,5;	0,0;	0,0
313,141357421875;	112,5;	0,0;	0,0
313,1749267578125;	108,25;	0,0;	0,0
313,20849609375;	129,0;	0,0;	0,0
313,2420959472656;	132,75;	0,0;	0,0
313,275634765625;	123,75;	0,0;	0,0
313,3092041015625;	124,75;	0,0;	0,0
313,3427429199219;	101,5;	0,0;	0,0
313,37628173828125;	130,0;	0,0;	0,0
313,4098205566406;	144,75;	0,0;	0,0
313,443359375;	120,25;	0,0;	0,0
313,47686767578125;	100,75;	0,0;	0,0
313,5103454589844;	124,25;	0,0;	0,0
313,54388427734375;	132,0;	0,0;	0,0
313,577392578125;	120,75;	0,0;	0,0
313,6108703613281;	124,0;	0,0;	0,0
313,6443786621094;	112,75;	0,0;	0,0
313,6778564453125;	116,0;	0,0;	0,0
313,7113037109375;	110,0;	0,0;	0,0
313,7447814941406;	94,25;	0,0;	0,0
313,7782287597656;	115,5;	0,0;	0,0
313,8116760253906;	104,25;	0,0;	0,0
313,8451232910156;	128,5;	0,0;	0,0
313,8785400390625;	122,0;	0,0;	0,0
313,9119567871094;	107,0;	0,0;	0,0
313,9454040527344;	109,25;	0,0;	0,0
313,97882080078125;	145,5;	0,0;	0,0
314,01220703125;	116,25;	0,0;	0,0
314,0456237792969;	124,0;	0,0;	0,0
314,0790100097656;	110,5;	0,0;	0,0
314,1123962402344;	115,0;	0,0;	0,0
314,1457824707031;	116,75;	0,0;	0,0
314,17913818359375;	110,0;	0,0;	0,0
314,2124938964844;	114,0;	0,0;	0,0
314,245849609375;	128,25;	0,0;	0,0
314,2792053222656;	132,5;	0,0;	0,0
314,31256103515625;	147,75;	0,0;	0,0
314,3459167480469;	141,5;	0,0;	0,0
314,37921142578125;	144,0;	0,0;	0,0
314,41253662109375;	146,0;	0,0;	0,0
314,44586181640625;	149,75;	0,0;	0,0
314,4791564941406;	133,25;	0,0;	0,0
314,512451171875;	107,25;	0,0;	0,0
314,5457763671875;	116,5;	0,0;	0,0
314,57904052734375;	119,0;	0,0;	0,0
314,6123046875;	112,25;	0,0;	0,0
314,6455993652344;	124,5;	0,0;	0,0
314,6788635253906;	101,0;	0,0;	0,0
314,71209716796875;	117,25;	0,0;	0,0
314,745361328125;	116,5;	0,0;	0,0
314,7785949707031;	111,5;	0,0;	0,0
314,8117980957031;	112,75;	0,0;	0,0
314,8450622558594;	116,5;	0,0;	0,0
314,8782653808594;	101,0;	0,0;	0,0
314,9114685058594;	113,25;	0,0;	0,0
314,9447021484375;	108,75;	0,0;	0,0
314,9778747558594;	111,25;	0,0;	0,0
315,0110778808594;	116,25;	0,0;	0,0
315,0442810058594;	138,0;	0,0;	0,0
315,07745361328125;	133,0;	0,0;	0,0
315,1106262207031;	147,25;	0,0;	0,0
315,14373779296875;	138,0;	0,0;	0,0
315,17694091796875;	133,5;	0,0;	0,0
315,2100830078125;	123,5;	0,0;	0,0
315,2431945800781;	115,5;	0,0;	0,0
315,2763671875;	119,5;	0,0;	0,0
315,3094787597656;	139,5;	0,0;	0,0
315,34259033203125;	112,75;	0,0;	0,0
315,3757019042969;	132,75;	0,0;	0,0
315,4088134765625;	166,75;	0,0;	0,0
315,4419250488281;	134,75;	0,0;	0,0
315,4750061035156;	130,75;	0,0;	0,0
315,5080871582031;	130,25;	0,0;	0,0
315,5411376953125;	124,25;	0,0;	0,0
315,5742492675781;	112,75;	0,0;	0,0
315,6072998046875;	136,25;	0,0;	0,0
315,6403503417969;	137,25;	0,0;	0,0
315,67340087890625;	135,5;	0,0;	0,0
315,7064514160156;	164,5;	0,0;	0,0
315,7394714355469;	150,75;	0,0;	0,0
315,77252197265625;	159,0;	0,0;	0,0
315,8055114746094;	162,5;	0,0;	0,0
315,8385314941406;	171,75;	0,0;	0,0
315,8715515136719;	192,75;	0,0;	0,0
315,904541015625;	214,25;	0,0;	0,0
315,9375305175781;	163,0;	0,0;	0,0
315,9705505371094;	143,25;	0,0;	0,0
316,00347900390625;	146,75;	0,0;	0,0
316,0364685058594;	177,75;	0,0;	0,0
316,0694274902344;	164,5;	0,0;	0,0
316,10235595703125;	123,5;	0,0;	0,0
316,13531494140625;	135,5;	0,0;	0,0
316,16827392578125;	152,75;	0,0;	0,0
316,2012023925781;	127,75;	0,0;	0,0
316,2341003417969;	115,25;	0,0;	0,0
316,2670593261719;	127,25;	0,0;	0,0
316,2999572753906;	108,75;	0,0;	0,0
316,3328552246094;	103,75;	0,0;	0,0
316,36578369140625;	122,75;	0,0;	0,0
316,3986511230469;	129,5;	0,0;	0,0
316,4315490722656;	105,0;	0,0;	0,0
316,46441650390625;	119,25;	0,0;	0,0
316,4972839355469;	124,25;	0,0;	0,0
316,5301513671875;	117,75;	0,0;	0,0
316,5630187988281;	133,75;	0,0;	0,0
316,5958251953125;	145,0;	0,0;	0,0
316,6286926269531;	132,0;	0,0;	0,0
316,6615295410156;	123,0;	0,0;	0,0
316,6943359375;	119,25;	0,0;	0,0
316,7271728515625;	123,25;	0,0;	0,0
316,7599792480469;	138,0;	0,0;	0,0
316,7927551269531;	122,0;	0,0;	0,0
316,8255310058594;	119,5;	0,0;	0,0
316,8583679199219;	108,5;	0,0;	0,0
316,8911437988281;	122,5;	0,0;	0,0
316,92388916015625;	108,5;	0,0;	0,0
316,9566955566406;	110,0;	0,0;	0,0
316,98944091796875;	115,25;	0,0;	0,0
317,0221862792969;	133,75;	0,0;	0,0
317,054931640625;	117,25;	0,0;	0,0
317,0876770019531;	96,25;	0,0;	0,0
317,1203918457031;	121,5;	0,0;	0,0
317,1531066894531;	126,0;	0,0;	0,0
317,18585205078125;	123,25;	0,0;	0,0
317,2185363769531;	126,0;	0,0;	0,0
317,2512512207031;	104,0;	0,0;	0,0
317,2839660644531;	111,25;	0,0;	0,0
317,3166198730469;	122,5;	0,0;	0,0
317,34930419921875;	118,0;	0,0;	0,0
317,3819885253906;	131,0;	0,0;	0,0
317,4146728515625;	105,5;	0,0;	0,0
317,44732666015625;	134,5;	0,0;	0,0
317,47998046875;	124,75;	0,0;	0,0
317,5126037597656;	153,5;	0,0;	0,0
317,54522705078125;	151,0;	0,0;	0,0
317,577880859375;	134,25;	0,0;	0,0
317,6105041503906;	109,25;	0,0;	0,0
317,6430969238281;	133,75;	0,0;	0,0
317,6757507324219;	105,25;	0,0;	0,0
317,7083435058594;	116,0;	0,0;	0,0
317,74090576171875;	136,5;	0,0;	0,0
317,7735290527344;	151,5;	0,0;	0,0
317,80609130859375;	151,75;	0,0;	0,0
317,8386535644531;	173,5;	0,0;	0,0
317,8712463378906;	171,5;	0,0;	0,0
317,9037780761719;	268,75;	0,0;	0,0
317,9363098144531;	352,25;	0,0;	0,0
317,9688720703125;	274,75;	0,0;	0,0
318,00140380859375;	224,75;	0,0;	0,0
318,033935546875;	188,25;	0,0;	0,0
318,06646728515625;	144,75;	0,0;	0,0
318,0989685058594;	143,5;	0,0;	0,0
318,1314697265625;	147,75;	0,0;	0,0
318,16400146484375;	151,25;	0,0;	0,0
318,19647216796875;	123,0;	0,0;	0,0
318,22894287109375;	121,75;	0,0;	0,0
318,2614440917969;	128,25;	0,0;	0,0
318,2939147949219;	135,25;	0,0;	0,0
318,32635498046875;	129,0;	0,0;	0,0
318,35882568359375;	145,0;	0,0;	0,0
318,39129638671875;	105,75;	0,0;	0,0
318,4237060546875;	118,5;	0,0;	0,0
318,4561767578125;	151,5;	0,0;	0,0
318,48858642578125;	142,0;	0,0;	0,0
318,5209655761719;	142,0;	0,0;	0,0
318,55340576171875;	98,75;	0,0;	0,0
318,5858154296875;	100,75;	0,0;	0,0
318,6181945800781;	121,75;	0,0;	0,0
318,6506042480469;	146,0;	0,0;	0,0
318,6829833984375;	141,5;	0,0;	0,0
318,7153625488281;	132,75;	0,0;	0,0
318,74774169921875;	102,75;	0,0;	0,0
318,78009033203125;	107,75;	0,0;	0,0
318,81243896484375;	134,5;	0,0;	0,0
318,8448181152344;	123,25;	0,0;	0,0
318,87713623046875;	128,25;	0,0;	0,0
318,9094543457031;	127,25;	0,0;	0,0
318,9418029785156;	118,75;	0,0;	0,0
318,97412109375;	117,75;	0,0;	0,0
319,00640869140625;	121,5;	0,0;	0,0
319,0387268066406;	110,0;	0,0;	0,0
319,0710144042969;	128,5;	0,0;	0,0
319,1033020019531;	108,25;	0,0;	0,0
319,1355895996094;	130,25;	0,0;	0,0
319,1678466796875;	158,25;	0,0;	0,0
319,2001037597656;	145,0;	0,0;	0,0
319,2323913574219;	169,25;	0,0;	0,0
319,2646179199219;	214,5;	0,0;	0,0
319,296875;	253,0;	0,0;	0,0
319,3291015625;	219,0;	0,0;	0,0
319,361328125;	168,0;	0,0;	0,0
319,3935546875;	151,5;	0,0;	0,0
319,42578125;	130,75;	0,0;	0,0
319,4579772949219;	128,0;	0,0;	0,0
319,4902038574219;	133,5;	0,0;	0,0
319,5223693847656;	130,5;	0,0;	0,0
319,5545654296875;	131,25;	0,0;	0,0
319,5867614746094;	166,25;	0,0;	0,0
319,618896484375;	224,0;	0,0;	0,0
319,6510925292969;	271,25;	0,0;	0,0
319,6832275390625;	297,25;	0,0;	0,0
319,71539306640625;	193,0;	0,0;	0,0
319,7475280761719;	124,0;	0,0;	0,0
319,7796630859375;	135,5;	0,0;	0,0
319,811767578125;	117,0;	0,0;	0,0
319,84393310546875;	104,5;	0,0;	0,0
319,8760070800781;	118,0;	0,0;	0,0
319,90814208984375;	144,5;	0,0;	0,0
319,94024658203125;	184,75;	0,0;	0,0
319,9723205566406;	156,0;	0,0;	0,0
320,00439453125;	166,75;	0,0;	0,0
320,0364990234375;	226,5;	0,0;	0,0
320,06854248046875;	158,25;	0,0;	0,0
320,1006164550781;	111,25;	0,0;	0,0
320,1326904296875;	119,0;	0,0;	0,0
320,1647033691406;	119,75;	0,0;	0,0
320,1967468261719;	116,75;	0,0;	0,0
320,2287902832031;	112,5;	0,0;	0,0
320,2608337402344;	121,5;	0,0;	0,0
320,2928466796875;	98,0;	0,0;	0,0
320,3248596191406;	107,25;	0,0;	0,0
320,35687255859375;	117,75;	0,0;	0,0
320,38885498046875;	130,75;	0,0;	0,0
320,42083740234375;	122,75;	0,0;	0,0
320,45281982421875;	135,5;	0,0;	0,0
320,48480224609375;	168,0;	0,0;	0,0
320,5167541503906;	210,75;	0,0;	0,0
320,5487060546875;	167,25;	0,0;	0,0
320,5806579589844;	125,25;	0,0;	0,0
320,6126403808594;	131,25;	0,0;	0,0
320,6445617675781;	124,5;	0,0;	0,0
320,67645263671875;	120,75;	0,0;	0,0
320,70843505859375;	123,5;	0,0;	0,0
320,7403259277344;	122,5;	0,0;	0,0
320,772216796875;	124,5;	0,0;	0,0
320,80413818359375;	125,25;	0,0;	0,0
320,8360290527344;	130,25;	0,0;	0,0
320,867919921875;	129,25;	0,0;	0,0
320,8998107910156;	153,25;	0,0;	0,0
320,9316711425781;	147,25;	0,0;	0,0
320,9635314941406;	152,5;	0,0;	0,0
320,9953918457031;	199,0;	0,0;	0,0
321,0272216796875;	196,0;	0,0;	0,0
321,0590515136719;	256,5;	0,0;	0,0
321,09088134765625;	227,0;	0,0;	0,0
321,12274169921875;	230,25;	0,0;	0,0
321,1545715332031;	304,5;	0,0;	0,0
321,1863708496094;	339,0;	0,0;	0,0
321,2181701660156;	214,75;	0,0;	0,0
321,2499694824219;	176,0;	0,0;	0,0
321,28173828125;	188,5;	0,0;	0,0
321,3135681152344;	249,25;	0,0;	0,0
321,3453063964844;	291,0;	0,0;	0,0
321,3770751953125;	392,25;	0,0;	0,0
321,40887451171875;	331,0;	0,0;	0,0
321,44061279296875;	206,75;	0,0;	0,0
321,47235107421875;	155,5;	0,0;	0,0
321,5041198730469;	159,0;	0,0;	0,0
321,5357971191406;	167,0;	0,0;	0,0
321,5675048828125;	203,0;	0,0;	0,0
321,5992431640625;	197,75;	0,0;	0,0
321,6309509277344;	128,75;	0,0;	0,0
321,66265869140625;	133,0;	0,0;	0,0
321,6943664550781;	169,5;	0,0;	0,0
321,7260437011719;	160,5;	0,0;	0,0
321,7577209472656;	140,75;	0,0;	0,0
321,7893981933594;	125,75;	0,0;	0,0
321,821044921875;	130,5;	0,0;	0,0
321,85272216796875;	139,75;	0,0;	0,0
321,8843994140625;	186,75;	0,0;	0,0
321,916015625;	237,25;	0,0;	0,0
321,9476318359375;	289,25;	0,0;	0,0
321,9792785644531;	234,25;	0,0;	0,0
322,0108947753906;	162,25;	0,0;	0,0
322,0425109863281;	137,75;	0,0;	0,0
322,0741271972656;	147,0;	0,0;	0,0
322,105712890625;	157,5;	0,0;	0,0
322,1372985839844;	239,0;	0,0;	0,0
322,16888427734375;	376,0;	0,0;	0,0
322,2004699707031;	370,75;	0,0;	0,0
322,2320251464844;	191,0;	0,0;	0,0
322,26361083984375;	114,25;	0,0;	0,0
322,295166015625;	122,0;	0,0;	0,0
322,3266906738281;	127,0;	0,0;	0,0
322,3582458496094;	133,75;	0,0;	0,0
322,3897705078125;	110,5;	0,0;	0,0
322,4212646484375;	143,5;	0,0;	0,0
322,45281982421875;	162,0;	0,0;	0,0
322,4843444824219;	192,5;	0,0;	0,0
322,51580810546875;	303,75;	0,0;	0,0
322,54736328125;	491,75;	0,0;	0,0
322,57879638671875;	435,75;	0,0;	0,0
322,61029052734375;	192,0;	0,0;	0,0
322,64178466796875;	147,25;	0,0;	0,0
322,6732482910156;	157,25;	0,0;	0,0
322,7046813964844;	194,75;	0,0;	0,0
322,7361755371094;	255,25;	0,0;	0,0
322,767578125;	379,5;	0,0;	0,0
322,79901123046875;	270,0;	0,0;	0,0
322,8304748535156;	179,0;	0,0;	0,0
322,86187744140625;	132,75;	0,0;	0,0
322,8932800292969;	140,5;	0,0;	0,0
322,9247131347656;	142,75;	0,0;	0,0
322,9560852050781;	135,5;	0,0;	0,0
322,98748779296875;	161,0;	0,0;	0,0
323,01885986328125;	162,75;	0,0;	0,0
323,05023193359375;	155,25;	0,0;	0,0
323,08160400390625;	188,25;	0,0;	0,0
323,1129455566406;	134,25;	0,0;	0,0
323,1443176269531;	113,0;	0,0;	0,0
323,1756591796875;	115,75;	0,0;	0,0
323,2070007324219;	113,5;	0,0;	0,0
323,23834228515625;	119,0;	0,0;	0,0
323,2696533203125;	174,5;	0,0;	0,0
323,30096435546875;	182,0;	0,0;	0,0
323,3323059082031;	148,25;	0,0;	0,0
323,36358642578125;	179,25;	0,0;	0,0
323,3948669433594;	168,0;	0,0;	0,0
323,4261779785156;	149,75;	0,0;	0,0
323,45745849609375;	145,0;	0,0;	0,0
323,48870849609375;	121,0;	0,0;	0,0
323,5199890136719;	119,5;	0,0;	0,0
323,55126953125;	125,5;	0,0;	0,0
323,5824890136719;	134,25;	0,0;	0,0
323,61376953125;	146,0;	0,0;	0,0
323,6449890136719;	128,5;	0,0;	0,0
323,67620849609375;	118,25;	0,0;	0,0
323,70745849609375;	120,75;	0,0;	0,0
323,7386474609375;	123,0;	0,0;	0,0
323,76983642578125;	133,5;	0,0;	0,0
323,8010559082031;	122,25;	0,0;	0,0
323,8322448730469;	120,5;	0,0;	0,0
323,8634338378906;	152,25;	0,0;	0,0
323,8946228027344;	208,0;	0,0;	0,0
323,92578125;	258,75;	0,0;	0,0
323,9569091796875;	172,5;	0,0;	0,0
323,9880676269531;	137,25;	0,0;	0,0
324,01922607421875;	123,5;	0,0;	0,0
324,05035400390625;	108,0;	0,0;	0,0
324,0815124511719;	111,75;	0,0;	0,0
324,1126403808594;	123,25;	0,0;	0,0
324,14373779296875;	124,5;	0,0;	0,0
324,1748352050781;	120,75;	0,0;	0,0
324,2059326171875;	110,5;	0,0;	0,0
324,2370300292969;	121,25;	0,0;	0,0
324,2681579589844;	121,5;	0,0;	0,0
324,2992248535156;	131,25;	0,0;	0,0
324,33026123046875;	146,75;	0,0;	0,0
324,3613586425781;	189,75;	0,0;	0,0
324,39239501953125;	227,0;	0,0;	0,0
324,4234313964844;	195,25;	0,0;	0,0
324,4544982910156;	117,0;	0,0;	0,0
324,48553466796875;	126,25;	0,0;	0,0
324,51654052734375;	113,25;	0,0;	0,0
324,5475769042969;	139,0;	0,0;	0,0
324,5785827636719;	131,5;	0,0;	0,0
324,60955810546875;	148,5;	0,0;	0,0
324,6405944824219;	164,0;	0,0;	0,0
324,67156982421875;	242,5;	0,0;	0,0
324,7025451660156;	326,5;	0,0;	0,0
324,7335510253906;	620,25;	0,0;	0,0
324,7644958496094;	392,25;	0,0;	0,0
324,79547119140625;	168,0;	0,0;	0,0
324,826416015625;	166,25;	0,0;	0,0
324,85736083984375;	126,75;	0,0;	0,0
324,8882751464844;	122,0;	0,0;	0,0
324,919189453125;	115,0;	0,0;	0,0
324,95013427734375;	122,5;	0,0;	0,0
324,9810485839844;	127,0;	0,0;	0,0
325,011962890625;	126,25;	0,0;	0,0
325,0428771972656;	137,5;	0,0;	0,0
325,07373046875;	150,5;	0,0;	0,0
325,1046447753906;	120,25;	0,0;	0,0
325,1355285644531;	104,0;	0,0;	0,0
325,1663818359375;	118,5;	0,0;	0,0
325,1972351074219;	106,75;	0,0;	0,0
325,2281188964844;	128,75;	0,0;	0,0
325,2589416503906;	130,0;	0,0;	0,0
325,289794921875;	109,0;	0,0;	0,0
325,3206481933594;	152,75;	0,0;	0,0
325,3514404296875;	139,75;	0,0;	0,0
325,3822326660156;	129,75;	0,0;	0,0
325,4130554199219;	184,5;	0,0;	0,0
325,4438781738281;	114,0;	0,0;	0,0
325,47467041015625;	98,25;	0,0;	0,0
325,5054626464844;	100,75;	0,0;	0,0
325,5362243652344;	100,25;	0,0;	0,0
325,5669860839844;	119,75;	0,0;	0,0
325,5977783203125;	112,5;	0,0;	0,0
325,6285095214844;	120,5;	0,0;	0,0
325,65924072265625;	106,75;	0,0;	0,0
325,6900329589844;	123,5;	0,0;	0,0
325,72076416015625;	129,75;	0,0;	0,0
325,7514953613281;	130,25;	0,0;	0,0
325,7822265625;	137,75;	0,0;	0,0
325,81292724609375;	129,25;	0,0;	0,0
325,8436279296875;	132,75;	0,0;	0,0
325,87432861328125;	112,25;	0,0;	0,0
325,9049987792969;	130,0;	0,0;	0,0
325,9356689453125;	116,25;	0,0;	0,0
325,96636962890625;	110,0;	0,0;	0,0
325,9970397949219;	115,75;	0,0;	0,0
326,0276794433594;	119,0;	0,0;	0,0
326,058349609375;	119,0;	0,0;	0,0
326,0889892578125;	102,5;	0,0;	0,0
326,1195983886719;	122,0;	0,0;	0,0
326,1502685546875;	126,25;	0,0;	0,0
326,1808776855469;	120,5;	0,0;	0,0
326,21148681640625;	130,5;	0,0;	0,0
326,24212646484375;	132,25;	0,0;	0,0
326,272705078125;	115,5;	0,0;	0,0
326,30328369140625;	122,0;	0,0;	0,0
326,3338928222656;	114,75;	0,0;	0,0
326,36444091796875;	111,75;	0,0;	0,0
326,39501953125;	118,5;	0,0;	0,0
326,42559814453125;	139,25;	0,0;	0,0
326,45611572265625;	163,5;	0,0;	0,0
326,4866638183594;	151,25;	0,0;	0,0
326,5172424316406;	167,25;	0,0;	0,0
326,5477600097656;	217,25;	0,0;	0,0
326,5782775878906;	167,5;	0,0;	0,0
326,6087646484375;	117,25;	0,0;	0,0
326,6393127441406;	118,5;	0,0;	0,0
326,6697998046875;	119,0;	0,0;	0,0
326,7003173828125;	119,5;	0,0;	0,0
326,73077392578125;	129,75;	0,0;	0,0
326,7612609863281;	119,5;	0,0;	0,0
326,7917175292969;	117,75;	0,0;	0,0
326,82220458984375;	124,5;	0,0;	0,0
326,8526611328125;	112,75;	0,0;	0,0
326,88311767578125;	115,25;	0,0;	0,0
326,91357421875;	133,75;	0,0;	0,0
326,9439697265625;	127,75;	0,0;	0,0
326,974365234375;	111,25;	0,0;	0,0
327,0048522949219;	131,25;	0,0;	0,0
327,03521728515625;	144,5;	0,0;	0,0
327,06561279296875;	193,25;	0,0;	0,0
327,0960693359375;	194,25;	0,0;	0,0
327,1264343261719;	132,5;	0,0;	0,0
327,15679931640625;	106,0;	0,0;	0,0
327,1871643066406;	120,75;	0,0;	0,0
327,217529296875;	117,0;	0,0;	0,0
327,2478942871094;	132,0;	0,0;	0,0
327,27825927734375;	154,75;	0,0;	0,0
327,30859375;	176,0;	0,0;	0,0
327,33892822265625;	226,25;	0,0;	0,0
327,3692626953125;	450,0;	0,0;	0,0
327,3995666503906;	362,5;	0,0;	0,0
327,42987060546875;	152,25;	0,0;	0,0
327,460205078125;	129,5;	0,0;	0,0
327,490478515625;	111,5;	0,0;	0,0
327,520751953125;	105,5;	0,0;	0,0
327,5510559082031;	111,25;	0,0;	0,0
327,5813293457031;	109,5;	0,0;	0,0
327,6116027832031;	102,75;	0,0;	0,0
327,6418762207031;	117,75;	0,0;	0,0
327,672119140625;	127,25;	0,0;	0,0
327,7023620605469;	119,5;	0,0;	0,0
327,73260498046875;	119,75;	0,0;	0,0
327,7628479003906;	116,75;	0,0;	0,0
327,7930603027344;	115,75;	0,0;	0,0
327,8232727050781;	106,5;	0,0;	0,0
327,8534851074219;	110,25;	0,0;	0,0
327,8836669921875;	121,25;	0,0;	0,0
327,91387939453125;	104,75;	0,0;	0,0
327,9440612792969;	122,75;	0,0;	0,0
327,9742126464844;	131,75;	0,0;	0,0
328,00439453125;	162,5;	0,0;	0,0
328,0345764160156;	160,0;	0,0;	0,0
328,064697265625;	155,25;	0,0;	0,0
328,0948791503906;	123,75;	0,0;	0,0
328,125;	111,25;	0,0;	0,0
328,1551208496094;	123,75;	0,0;	0,0
328,1852722167969;	121,0;	0,0;	0,0
328,2153625488281;	115,0;	0,0;	0,0
328,2454528808594;	131,75;	0,0;	0,0
328,2756042480469;	125,5;	0,0;	0,0
328,3056640625;	115,25;	0,0;	0,0
328,33575439453125;	123,0;	0,0;	0,0
328,3658447265625;	107,5;	0,0;	0,0
328,39593505859375;	110,75;	0,0;	0,0
328,42596435546875;	127,25;	0,0;	0,0
328,4560241699219;	120,5;	0,0;	0,0
328,486083984375;	132,5;	0,0;	0,0
328,5160827636719;	138,25;	0,0;	0,0
328,5461730957031;	135,25;	0,0;	0,0
328,576171875;	154,5;	0,0;	0,0
328,6061706542969;	170,25;	0,0;	0,0
328,6361999511719;	266,25;	0,0;	0,0
328,66619873046875;	331,5;	0,0;	0,0
328,6961669921875;	174,0;	0,0;	0,0
328,7261657714844;	109,25;	0,0;	0,0
328,75616455078125;	114,5;	0,0;	0,0
328,7861328125;	100,5;	0,0;	0,0
328,8160705566406;	116,25;	0,0;	0,0
328,8460388183594;	117,0;	0,0;	0,0
328,8759765625;	111,5;	0,0;	0,0
328,9059143066406;	129,75;	0,0;	0,0
328,9358825683594;	116,25;	0,0;	0,0
328,9657897949219;	118,5;	0,0;	0,0
328,9956970214844;	124,0;	0,0;	0,0
329,025634765625;	113,75;	0,0;	0,0
329,0555419921875;	133,25;	0,0;	0,0
329,0854187011719;	143,5;	0,0;	0,0
329,1153259277344;	110,75;	0,0;	0,0
329,14520263671875;	134,5;	0,0;	0,0
329,175048828125;	163,75;	0,0;	0,0
329,2049560546875;	164,0;	0,0;	0,0
329,23480224609375;	162,75;	0,0;	0,0
329,2646179199219;	130,75;	0,0;	0,0
329,2944641113281;	107,75;	0,0;	0,0
329,3243103027344;	106,75;	0,0;	0,0
329,3541259765625;	104,5;	0,0;	0,0
329,38397216796875;	107,75;	0,0;	0,0
329,4137878417969;	105,75;	0,0;	0,0
329,44354248046875;	126,25;	0,0;	0,0
329,4733581542969;	103,75;	0,0;	0,0
329,5031433105469;	109,25;	0,0;	0,0
329,53289794921875;	108,75;	0,0;	0,0
329,5627136230469;	93,25;	0,0;	0,0
329,59246826171875;	115,5;	0,0;	0,0
329,6221923828125;	111,75;	0,0;	0,0
329,6519775390625;	112,0;	0,0;	0,0
329,6817321777344;	116,25;	0,0;	0,0
329,71142578125;	105,0;	0,0;	0,0
329,7412109375;	126,25;	0,0;	0,0
329,7709045410156;	121,75;	0,0;	0,0
329,80059814453125;	117,0;	0,0;	0,0
329,830322265625;	96,5;	0,0;	0,0
329,8600158691406;	91,0;	0,0;	0,0
329,8896789550781;	118,5;	0,0;	0,0
329,9194030761719;	123,75;	0,0;	0,0
329,9490661621094;	105,0;	0,0;	0,0
329,9787292480469;	97,75;	0,0;	0,0
330,0083923339844;	108,5;	0,0;	0,0
330,03802490234375;	107,75;	0,0;	0,0
330,06768798828125;	118,75;	0,0;	0,0
330,0973205566406;	114,0;	0,0;	0,0
330,126953125;	140,75;	0,0;	0,0
330,15655517578125;	152,25;	0,0;	0,0
330,1861877441406;	169,25;	0,0;	0,0
330,2157897949219;	201,25;	0,0;	0,0
330,245361328125;	198,0;	0,0;	0,0
330,27496337890625;	175,75;	0,0;	0,0
330,3045349121094;	126,5;	0,0;	0,0
330,3341369628906;	118,0;	0,0;	0,0
330,36370849609375;	125,0;	0,0;	0,0
330,39324951171875;	111,5;	0,0;	0,0
330,42279052734375;	112,25;	0,0;	0,0
330,45233154296875;	115,75;	0,0;	0,0
330,48187255859375;	125,0;	0,0;	0,0
330,51141357421875;	162,0;	0,0;	0,0
330,54095458984375;	207,25;	0,0;	0,0
330,5704345703125;	315,5;	0,0;	0,0
330,5999450683594;	399,75;	0,0;	0,0
330,6294250488281;	309,5;	0,0;	0,0
330,658935546875;	172,5;	0,0;	0,0
330,6883850097656;	144,0;	0,0;	0,0
330,7178649902344;	150,75;	0,0;	0,0
330,7473449707031;	101,25;	0,0;	0,0
330,7768249511719;	108,75;	0,0;	0,0
330,8062744140625;	129,25;	0,0;	0,0
330,8357238769531;	110,5;	0,0;	0,0
330,8651428222656;	112,25;	0,0;	0,0
330,8945617675781;	109,5;	0,0;	0,0
330,92401123046875;	97,25;	0,0;	0,0
330,9533996582031;	117,0;	0,0;	0,0
330,9827880859375;	100,75;	0,0;	0,0
331,0122375488281;	122,0;	0,0;	0,0
331,0415954589844;	118,75;	0,0;	0,0
331,07098388671875;	116,5;	0,0;	0,0
331,100341796875;	104,0;	0,0;	0,0
331,1297302246094;	115,25;	0,0;	0,0
331,1590576171875;	108,5;	0,0;	0,0
331,1884460449219;	112,25;	0,0;	0,0
331,2177734375;	106,25;	0,0;	0,0
331,2471008300781;	115,0;	0,0;	0,0
331,27642822265625;	95,0;	0,0;	0,0
331,3057861328125;	111,75;	0,0;	0,0
331,3350524902344;	102,0;	0,0;	0,0
331,3643798828125;	117,5;	0,0;	0,0
331,3936767578125;	112,0;	0,0;	0,0
331,4229431152344;	130,0;	0,0;	0,0
331,4522399902344;	150,25;	0,0;	0,0
331,4815368652344;	151,0;	0,0;	0,0
331,5107727050781;	121,25;	0,0;	0,0
331,5400695800781;	109,0;	0,0;	0,0
331,5693054199219;	111,0;	0,0;	0,0
331,5985107421875;	97,5;	0,0;	0,0
331,6278076171875;	125,5;	0,0;	0,0
331,6570129394531;	111,5;	0,0;	0,0
331,68621826171875;	127,0;	0,0;	0,0
331,7154541015625;	121,5;	0,0;	0,0
331,7446594238281;	114,75;	0,0;	0,0
331,7738342285156;	97,25;	0,0;	0,0
331,80303955078125;	121,75;	0,0;	0,0
331,83221435546875;	97,5;	0,0;	0,0
331,86138916015625;	101,75;	0,0;	0,0
331,89056396484375;	110,25;	0,0;	0,0
331,91973876953125;	109,5;	0,0;	0,0
331,9488830566406;	109,25;	0,0;	0,0
331,97802734375;	119,75;	0,0;	0,0
332,0071716308594;	127,25;	0,0;	0,0
332,0362548828125;	116,0;	0,0;	0,0
332,0653991699219;	107,75;	0,0;	0,0
332,0945129394531;	117,0;	0,0;	0,0
332,1236267089844;	124,75;	0,0;	0,0
332,1527099609375;	108,5;	0,0;	0,0
332,1817932128906;	109,5;	0,0;	0,0
332,21087646484375;	127,75;	0,0;	0,0
332,23992919921875;	107,0;	0,0;	0,0
332,2690124511719;	134,25;	0,0;	0,0
332,298095703125;	122,25;	0,0;	0,0
332,3271484375;	114,25;	0,0;	0,0
332,3561706542969;	130,75;	0,0;	0,0
332,38519287109375;	130,5;	0,0;	0,0
332,4142150878906;	120,5;	0,0;	0,0
332,4432373046875;	115,5;	0,0;	0,0
332,4722595214844;	120,5;	0,0;	0,0
332,5012512207031;	110,25;	0,0;	0,0
332,5302734375;	122,25;	0,0;	0,0
332,5592346191406;	104,75;	0,0;	0,0
332,5882263183594;	112,25;	0,0;	0,0
332,6172180175781;	119,25;	0,0;	0,0
332,64617919921875;	94,0;	0,0;	0,0
332,6751403808594;	102,5;	0,0;	0,0
332,7041015625;	117,75;	0,0;	0,0
332,7330322265625;	109,5;	0,0;	0,0
332,7619323730469;	96,0;	0,0;	0,0
332,7909240722656;	111,5;	0,0;	0,0
332,81982421875;	128,25;	0,0;	0,0
332,8487243652344;	141,75;	0,0;	0,0
332,87762451171875;	153,25;	0,0;	0,0
332,9065246582031;	124,0;	0,0;	0,0
332,9353942871094;	98,25;	0,0;	0,0
332,96429443359375;	109,5;	0,0;	0,0
332,9931335449219;	117,25;	0,0;	0,0
333,0220031738281;	102,0;	0,0;	0,0
333,0508728027344;	128,0;	0,0;	0,0
333,0797119140625;	118,5;	0,0;	0,0
333,1085510253906;	102,75;	0,0;	0,0
333,1374206542969;	105,0;	0,0;	0,0
333,1662292480469;	108,0;	0,0;	0,0
333,1950378417969;	92,5;	0,0;	0,0
333,223876953125;	114,75;	0,0;	0,0
333,2526550292969;	125,75;	0,0;	0,0
333,28143310546875;	114,0;	0,0;	0,0
333,31024169921875;	97,0;	0,0;	0,0
333,3390197753906;	113,25;	0,0;	0,0
333,3677673339844;	110,25;	0,0;	0,0
333,3965759277344;	111,25;	0,0;	0,0
333,4253234863281;	112,5;	0,0;	0,0
333,45404052734375;	113,0;	0,0;	0,0
333,4828186035156;	109,0;	0,0;	0,0
333,51153564453125;	81,0;	0,0;	0,0
333,5402526855469;	113,5;	0,0;	0,0
333,5690002441406;	119,25;	0,0;	0,0
333,5976867675781;	108,0;	0,0;	0,0
333,6263732910156;	99,5;	0,0;	0,0
333,65509033203125;	107,5;	0,0;	0,0
333,68377685546875;	90,25;	0,0;	0,0
333,7124328613281;	109,0;	0,0;	0,0
333,7411193847656;	121,0;	0,0;	0,0
333,769775390625;	119,75;	0,0;	0,0
333,7984313964844;	131,25;	0,0;	0,0
333,82708740234375;	103,5;	0,0;	0,0
333,8557434082031;	104,0;	0,0;	0,0
333,88433837890625;	103,0;	0,0;	0,0
333,9129943847656;	105,25;	0,0;	0,0
333,94158935546875;	126,0;	0,0;	0,0
333,97021484375;	116,25;	0,0;	0,0
333,998779296875;	96,5;	0,0;	0,0
334,02740478515625;	114,5;	0,0;	0,0
334,05596923828125;	122,0;	0,0;	0,0
334,0845642089844;	123,5;	0,0;	0,0
334,1131286621094;	115,5;	0,0;	0,0
334,14166259765625;	109,25;	0,0;	0,0
334,17022705078125;	126,25;	0,0;	0,0
334,19879150390625;	140,5;	0,0;	0,0
334,2273254394531;	109,75;	0,0;	0,0
334,2558288574219;	111,75;	0,0;	0,0
334,2843933105469;	116,0;	0,0;	0,0
334,3128967285156;	101,5;	0,0;	0,0
334,3414001464844;	110,25;	0,0;	0,0
334,3699035644531;	102,25;	0,0;	0,0
334,39837646484375;	120,25;	0,0;	0,0
334,4268493652344;	118,5;	0,0;	0,0
334,4553527832031;	117,25;	0,0;	0,0
334,4837951660156;	127,0;	0,0;	0,0
334,51226806640625;	119,5;	0,0;	0,0
334,5407409667969;	127,0;	0,0;	0,0
334,56915283203125;	107,75;	0,0;	0,0
334,59759521484375;	125,5;	0,0;	0,0
334,62603759765625;	109,0;	0,0;	0,0
334,6544494628906;	118,25;	0,0;	0,0
334,682861328125;	105,5;	0,0;	0,0
334,7112731933594;	111,75;	0,0;	0,0
334,7396545410156;	118,75;	0,0;	0,0
334,7680358886719;	131,5;	0,0;	0,0
334,79644775390625;	114,0;	0,0;	0,0
334,8248291015625;	109,75;	0,0;	0,0
334,8531494140625;	112,25;	0,0;	0,0
334,88153076171875;	116,25;	0,0;	0,0
334,9098815917969;	128,25;	0,0;	0,0
334,9382019042969;	117,5;	0,0;	0,0
334,966552734375;	125,25;	0,0;	0,0
334,9949035644531;	101,5;	0,0;	0,0
335,023193359375;	128,0;	0,0;	0,0
335,0515441894531;	106,0;	0,0;	0,0
335,079833984375;	101,75;	0,0;	0,0
335,10809326171875;	92,5;	0,0;	0,0
335,13641357421875;	115,75;	0,0;	0,0
335,1646728515625;	113,5;	0,0;	0,0
335,19293212890625;	110,0;	0,0;	0,0
335,2212219238281;	120,75;	0,0;	0,0
335,2494812011719;	105,75;	0,0;	0,0
335,2777099609375;	125,25;	0,0;	0,0
335,30596923828125;	117,75;	0,0;	0,0
335,3341979980469;	104,0;	0,0;	0,0
335,3624267578125;	108,25;	0,0;	0,0
335,3906555175781;	121,75;	0,0;	0,0
335,4188537597656;	124,0;	0,0;	0,0
335,447021484375;	112,75;	0,0;	0,0
335,4752502441406;	110,0;	0,0;	0,0
335,5034484863281;	141,5;	0,0;	0,0
335,5316162109375;	131,25;	0,0;	0,0
335,5597839355469;	123,0;	0,0;	0,0
335,58795166015625;	127,75;	0,0;	0,0
335,6160888671875;	104,0;	0,0;	0,0
335,6442565917969;	117,25;	0,0;	0,0
335,6723937988281;	117,5;	0,0;	0,0
335,70050048828125;	132,5;	0,0;	0,0
335,7286376953125;	126,25;	0,0;	0,0
335,7567443847656;	115,0;	0,0;	0,0
335,78485107421875;	122,5;	0,0;	0,0
335,8129577636719;	132,25;	0,0;	0,0
335,841064453125;	125,75;	0,0;	0,0
335,869140625;	105,5;	0,0;	0,0
335,8971862792969;	112,5;	0,0;	0,0
335,92529296875;	125,75;	0,0;	0,0
335,9533386230469;	123,0;	0,0;	0,0
335,9813537597656;	110,75;	0,0;	0,0
336,0094299316406;	120,75;	0,0;	0,0
336,0374755859375;	105,75;	0,0;	0,0
336,06549072265625;	122,25;	0,0;	0,0
336,0935363769531;	106,0;	0,0;	0,0
336,12152099609375;	124,25;	0,0;	0,0
336,1495056152344;	131,25;	0,0;	0,0
336,1775207519531;	110,75;	0,0;	0,0
336,20550537109375;	109,5;	0,0;	0,0
336,2334899902344;	87,5;	0,0;	0,0
336,261474609375;	106,5;	0,0;	0,0
336,2894287109375;	107,5;	0,0;	0,0
336,3173828125;	103,25;	0,0;	0,0
336,3453674316406;	108,75;	0,0;	0,0
336,373291015625;	122,25;	0,0;	0,0
336,4012145996094;	128,75;	0,0;	0,0
336,4291687011719;	119,75;	0,0;	0,0
336,4570617675781;	111,0;	0,0;	0,0
336,4849548339844;	99,75;	0,0;	0,0
336,5129089355469;	125,0;	0,0;	0,0
336,5408020019531;	99,75;	0,0;	0,0
336,5686340332031;	118,25;	0,0;	0,0
336,5965576171875;	119,5;	0,0;	0,0
336,6243896484375;	115,75;	0,0;	0,0
336,6522521972656;	119,0;	0,0;	0,0
336,6801452636719;	129,25;	0,0;	0,0
336,7079772949219;	122,0;	0,0;	0,0
336,7358093261719;	107,25;	0,0;	0,0
336,763671875;	95,75;	0,0;	0,0
336,7914733886719;	110,0;	0,0;	0,0
336,81927490234375;	105,0;	0,0;	0,0
336,84710693359375;	129,0;	0,0;	0,0
336,8749084472656;	136,5;	0,0;	0,0
336,9026794433594;	149,75;	0,0;	0,0
336,93048095703125;	182,0;	0,0;	0,0
336,958251953125;	153,5;	0,0;	0,0
336,98602294921875;	113,0;	0,0;	0,0
337,0137939453125;	154,25;	0,0;	0,0
337,0415344238281;	175,75;	0,0;	0,0
337,06927490234375;	168,5;	0,0;	0,0
337,0970153808594;	132,75;	0,0;	0,0
337,1247253417969;	129,0;	0,0;	0,0
337,1524353027344;	109,0;	0,0;	0,0
337,18017578125;	119,25;	0,0;	0,0
337,2078552246094;	114,25;	0,0;	0,0
337,2355651855469;	115,75;	0,0;	0,0
337,2632751464844;	121,5;	0,0;	0,0
337,29095458984375;	109,0;	0,0;	0,0
337,318603515625;	110,0;	0,0;	0,0
337,3463134765625;	108,5;	0,0;	0,0
337,37396240234375;	109,25;	0,0;	0,0
337,401611328125;	108,75;	0,0;	0,0
337,42919921875;	103,5;	0,0;	0,0
337,4568786621094;	123,0;	0,0;	0,0
337,4844970703125;	102,25;	0,0;	0,0
337,5121154785156;	112,0;	0,0;	0,0
337,53973388671875;	100,75;	0,0;	0,0
337,56732177734375;	110,75;	0,0;	0,0
337,59490966796875;	103,0;	0,0;	0,0
337,6225280761719;	112,5;	0,0;	0,0
337,65008544921875;	129,5;	0,0;	0,0
337,6776428222656;	97,25;	0,0;	0,0
337,7052307128906;	105,25;	0,0;	0,0
337,7327880859375;	108,0;	0,0;	0,0
337,76031494140625;	113,25;	0,0;	0,0
337,787841796875;	123,25;	0,0;	0,0
337,8153991699219;	120,5;	0,0;	0,0
337,8428955078125;	125,0;	0,0;	0,0
337,87042236328125;	138,0;	0,0;	0,0
337,89794921875;	132,5;	0,0;	0,0
337,9254150390625;	123,0;	0,0;	0,0
337,95294189453125;	145,75;	0,0;	0,0
337,98040771484375;	145,5;	0,0;	0,0
338,00787353515625;	155,0;	0,0;	0,0
338,03533935546875;	120,75;	0,0;	0,0
338,06280517578125;	118,5;	0,0;	0,0
338,0902404785156;	122,25;	0,0;	0,0
338,1177062988281;	119,25;	0,0;	0,0
338,1451416015625;	138,0;	0,0;	0,0
338,17254638671875;	112,25;	0,0;	0,0
338,1999816894531;	131,75;	0,0;	0,0
338,2273864746094;	128,5;	0,0;	0,0
338,2547912597656;	128,5;	0,0;	0,0
338,2822265625;	117,5;	0,0;	0,0
338,3095703125;	143,0;	0,0;	0,0
338,3369445800781;	143,25;	0,0;	0,0
338,3643493652344;	153,75;	0,0;	0,0
338,3917236328125;	140,75;	0,0;	0,0
338,4190368652344;	107,25;	0,0;	0,0
338,4464111328125;	99,5;	0,0;	0,0
338,4737243652344;	116,5;	0,0;	0,0
338,5010681152344;	103,75;	0,0;	0,0
338,5284118652344;	106,75;	0,0;	0,0
338,55572509765625;	90,0;	0,0;	0,0
338,5830078125;	112,75;	0,0;	0,0
338,6103210449219;	98,75;	0,0;	0,0
338,6376037597656;	113,75;	0,0;	0,0
338,6648864746094;	112,75;	0,0;	0,0
338,69219970703125;	121,5;	0,0;	0,0
338,71942138671875;	132,25;	0,0;	0,0
338,7467041015625;	89,25;	0,0;	0,0
338,77398681640625;	102,75;	0,0;	0,0
338,80120849609375;	115,25;	0,0;	0,0
338,82843017578125;	94,25;	0,0;	0,0
338,85565185546875;	97,0;	0,0;	0,0
338,8829040527344;	111,5;	0,0;	0,0
338,91009521484375;	99,25;	0,0;	0,0
338,9372863769531;	113,0;	0,0;	0,0
338,9645080566406;	113,5;	0,0;	0,0
338,99169921875;	124,0;	0,0;	0,0
339,0188903808594;	112,75;	0,0;	0,0
339,0460510253906;	100,5;	0,0;	0,0
339,07318115234375;	123,5;	0,0;	0,0
339,100341796875;	134,25;	0,0;	0,0
339,12750244140625;	141,5;	0,0;	0,0
339,1546325683594;	124,25;	0,0;	0,0
339,1817932128906;	168,75;	0,0;	0,0
339,20892333984375;	215,75;	0,0;	0,0
339,23602294921875;	198,0;	0,0;	0,0
339,26312255859375;	185,75;	0,0;	0,0
339,2902526855469;	125,5;	0,0;	0,0
339,31732177734375;	107,25;	0,0;	0,0
339,3444519042969;	117,25;	0,0;	0,0
339,3714904785156;	130,5;	0,0;	0,0
339,3985595703125;	127,75;	0,0;	0,0
339,42559814453125;	118,75;	0,0;	0,0
339,45269775390625;	118,0;	0,0;	0,0
339,4797058105469;	109,0;	0,0;	0,0
339,5067138671875;	113,75;	0,0;	0,0
339,5337829589844;	124,75;	0,0;	0,0
339,560791015625;	137,75;	0,0;	0,0
339,5877990722656;	119,5;	0,0;	0,0
339,6148376464844;	104,0;	0,0;	0,0
339,6418151855469;	122,75;	0,0;	0,0
339,6687927246094;	119,25;	0,0;	0,0
339,69580078125;	109,25;	0,0;	0,0
339,7227478027344;	120,75;	0,0;	0,0
339,74969482421875;	128,0;	0,0;	0,0
339,7767028808594;	110,25;	0,0;	0,0
339,80364990234375;	114,5;	0,0;	0,0
339,83056640625;	107,5;	0,0;	0,0
339,85748291015625;	127,75;	0,0;	0,0
339,8843994140625;	187,5;	0,0;	0,0
339,91131591796875;	210,5;	0,0;	0,0
339,9382629394531;	144,25;	0,0;	0,0
339,96514892578125;	122,75;	0,0;	0,0
339,9920349121094;	122,25;	0,0;	0,0
340,0189514160156;	111,25;	0,0;	0,0
340,0458068847656;	102,25;	0,0;	0,0
340,0726623535156;	103,0;	0,0;	0,0
340,09954833984375;	129,75;	0,0;	0,0
340,1263732910156;	145,0;	0,0;	0,0
340,1532287597656;	120,0;	0,0;	0,0
340,1800842285156;	143,5;	0,0;	0,0
340,2069091796875;	146,0;	0,0;	0,0
340,23370361328125;	123,75;	0,0;	0,0
340,26055908203125;	122,0;	0,0;	0,0
340,2873229980469;	117,5;	0,0;	0,0
340,31414794921875;	129,75;	0,0;	0,0
340,3409423828125;	146,5;	0,0;	0,0
340,3677062988281;	163,75;	0,0;	0,0
340,39447021484375;	185,5;	0,0;	0,0
340,4212646484375;	207,25;	0,0;	0,0
340,447998046875;	147,25;	0,0;	0,0
340,4747314453125;	99,75;	0,0;	0,0
340,5014953613281;	121,75;	0,0;	0,0
340,5282287597656;	119,25;	0,0;	0,0
340,554931640625;	133,5;	0,0;	0,0
340,5816345214844;	136,0;	0,0;	0,0
340,6083679199219;	182,75;	0,0;	0,0
340,63507080078125;	172,25;	0,0;	0,0
340,6617736816406;	239,5;	0,0;	0,0
340,6884460449219;	253,25;	0,0;	0,0
340,715087890625;	330,5;	0,0;	0,0
340,74176025390625;	352,75;	0,0;	0,0
340,7684326171875;	176,5;	0,0;	0,0
340,7950744628906;	111,75;	0,0;	0,0
340,8217468261719;	116,0;	0,0;	0,0
340,8483581542969;	122,25;	0,0;	0,0
340,875;	120,25;	0,0;	0,0
340,901611328125;	119,75;	0,0;	0,0
340,92822265625;	137,25;	0,0;	0,0
340,954833984375;	113,5;	0,0;	0,0
340,9814453125;	127,5;	0,0;	0,0
341,0080261230469;	111,0;	0,0;	0,0
341,0345764160156;	123,25;	0,0;	0,0
341,0611572265625;	107,5;	0,0;	0,0
341,0877380371094;	129,25;	0,0;	0,0
341,1142883300781;	139,75;	0,0;	0,0
341,14080810546875;	123,5;	0,0;	0,0
341,1673583984375;	130,0;	0,0;	0,0
341,19390869140625;	123,25;	0,0;	0,0
341,2204284667969;	139,0;	0,0;	0,0
341,2469482421875;	172,25;	0,0;	0,0
341,2734375;	193,25;	0,0;	0,0
341,2999267578125;	252,0;	0,0;	0,0
341,326416015625;	132,5;	0,0;	0,0
341,3529052734375;	108,0;	0,0;	0,0
341,3793640136719;	102,5;	0,0;	0,0
341,4058532714844;	115,0;	0,0;	0,0
341,43231201171875;	148,0;	0,0;	0,0
341,458740234375;	172,25;	0,0;	0,0
341,4851989746094;	132,0;	0,0;	0,0
341,5116271972656;	98,75;	0,0;	0,0
341,5380554199219;	129,0;	0,0;	0,0
341,56451416015625;	116,5;	0,0;	0,0
341,59088134765625;	135,5;	0,0;	0,0
341,6172790527344;	134,0;	0,0;	0,0
341,6437072753906;	131,75;	0,0;	0,0
341,6700744628906;	129,5;	0,0;	0,0
341,6964416503906;	142,25;	0,0;	0,0
341,72283935546875;	145,75;	0,0;	0,0
341,7491760253906;	166,5;	0,0;	0,0
341,7755432128906;	222,25;	0,0;	0,0
341,8018798828125;	161,25;	0,0;	0,0
341,8282470703125;	197,5;	0,0;	0,0
341,85455322265625;	171,75;	0,0;	0,0
341,880859375;	111,75;	0,0;	0,0
341,9071960449219;	105,0;	0,0;	0,0
341,9334716796875;	106,5;	0,0;	0,0
341,95977783203125;	115,25;	0,0;	0,0
341,9860534667969;	122,25;	0,0;	0,0
342,0123596191406;	114,75;	0,0;	0,0
342,03863525390625;	121,0;	0,0;	0,0
342,0649108886719;	105,75;	0,0;	0,0
342,0911560058594;	125,0;	0,0;	0,0
342,1174011230469;	114,5;	0,0;	0,0
342,1436462402344;	131,25;	0,0;	0,0
342,16986083984375;	125,5;	0,0;	0,0
342,1960754394531;	138,75;	0,0;	0,0
342,2223205566406;	156,5;	0,0;	0,0
342,2485046386719;	161,75;	0,0;	0,0
342,27471923828125;	137,5;	0,0;	0,0
342,3009033203125;	109,75;	0,0;	0,0
342,32708740234375;	134,75;	0,0;	0,0
342,353271484375;	145,75;	0,0;	0,0
342,3794250488281;	153,25;	0,0;	0,0
342,40557861328125;	182,75;	0,0;	0,0
342,4317626953125;	175,25;	0,0;	0,0
342,4578857421875;	136,25;	0,0;	0,0
342,4840087890625;	152,25;	0,0;	0,0
342,5101318359375;	118,5;	0,0;	0,0
342,5362854003906;	151,25;	0,0;	0,0
342,5623779296875;	149,5;	0,0;	0,0
342,5884704589844;	188,5;	0,0;	0,0
342,6145935058594;	244,5;	0,0;	0,0
342,6406555175781;	304,25;	0,0;	0,0
342,6667175292969;	283,0;	0,0;	0,0
342,69281005859375;	382,25;	0,0;	0,0
342,7188720703125;	239,25;	0,0;	0,0
342,7449035644531;	167,25;	0,0;	0,0
342,7709655761719;	144,5;	0,0;	0,0
342,7969970703125;	172,0;	0,0;	0,0
342,822998046875;	143,5;	0,0;	0,0
342,8490295410156;	109,5;	0,0;	0,0
342,87506103515625;	111,5;	0,0;	0,0
342,9010314941406;	128,75;	0,0;	0,0
342,92706298828125;	112,5;	0,0;	0,0
342,9530334472656;	119,25;	0,0;	0,0
342,9790344238281;	128,75;	0,0;	0,0
343,0050048828125;	112,25;	0,0;	0,0
343,03094482421875;	115,75;	0,0;	0,0
343,0569152832031;	112,25;	0,0;	0,0
343,0828857421875;	119,0;	0,0;	0,0
343,1087951660156;	109,75;	0,0;	0,0
343,1347351074219;	107,0;	0,0;	0,0
343,1606750488281;	106,75;	0,0;	0,0
343,18658447265625;	130,0;	0,0;	0,0
343,2124938964844;	108,0;	0,0;	0,0
343,2383728027344;	102,25;	0,0;	0,0
343,2642822265625;	97,0;	0,0;	0,0
343,2901611328125;	116,75;	0,0;	0,0
343,3160400390625;	112,5;	0,0;	0,0
343,3419189453125;	134,0;	0,0;	0,0
343,36773681640625;	114,5;	0,0;	0,0
343,39361572265625;	114,0;	0,0;	0,0
343,41943359375;	110,75;	0,0;	0,0
343,44525146484375;	115,25;	0,0;	0,0
343,47113037109375;	96,5;	0,0;	0,0
343,4969177246094;	112,75;	0,0;	0,0
343,5227355957031;	100,0;	0,0;	0,0
343,5485534667969;	104,75;	0,0;	0,0
343,5743408203125;	113,0;	0,0;	0,0
343,60009765625;	120,25;	0,0;	0,0
343,62591552734375;	132,25;	0,0;	0,0
343,6516418457031;	123,5;	0,0;	0,0
343,6773986816406;	128,75;	0,0;	0,0
343,70318603515625;	118,5;	0,0;	0,0
343,7289123535156;	129,0;	0,0;	0,0
343,754638671875;	112,0;	0,0;	0,0
343,78033447265625;	146,75;	0,0;	0,0
343,80609130859375;	134,25;	0,0;	0,0
343,831787109375;	115,75;	0,0;	0,0
343,8575134277344;	137,0;	0,0;	0,0
343,8832092285156;	176,0;	0,0;	0,0
343,90887451171875;	221,75;	0,0;	0,0
343,9345397949219;	263,5;	0,0;	0,0
343,9602355957031;	373,25;	0,0;	0,0
343,9858703613281;	522,0;	0,0;	0,0
344,0115661621094;	671,0;	0,0;	0,0
344,0372009277344;	1062,25;	0,0;	0,0
344,0628356933594;	856,75;	0,0;	0,0
344,08843994140625;	645,5;	0,0;	0,0
344,1141052246094;	218,5;	0,0;	0,0
344,13970947265625;	169,0;	0,0;	0,0
344,1653137207031;	158,5;	0,0;	0,0
344,19091796875;	151,25;	0,0;	0,0
344,21649169921875;	175,25;	0,0;	0,0
344,2420654296875;	172,25;	0,0;	0,0
344,26763916015625;	163,0;	0,0;	0,0
344,293212890625;	229,25;	0,0;	0,0
344,3187561035156;	259,0;	0,0;	0,0
344,34429931640625;	295,5;	0,0;	0,0
344,3698425292969;	431,5;	0,0;	0,0
344,3953552246094;	232,0;	0,0;	0,0
344,4209289550781;	163,0;	0,0;	0,0
344,4464111328125;	158,5;	0,0;	0,0
344,471923828125;	193,75;	0,0;	0,0
344,4974365234375;	254,25;	0,0;	0,0
344,5229187011719;	171,5;	0,0;	0,0
344,54840087890625;	133,0;	0,0;	0,0
344,5738830566406;	144,25;	0,0;	0,0
344,5993347167969;	140,75;	0,0;	0,0
344,6247863769531;	126,0;	0,0;	0,0
344,6502380371094;	130,25;	0,0;	0,0
344,6756896972656;	147,0;	0,0;	0,0
344,70111083984375;	151,0;	0,0;	0,0
344,7265319824219;	127,75;	0,0;	0,0
344,751953125;	126,0;	0,0;	0,0
344,7773742675781;	115,5;	0,0;	0,0
344,80279541015625;	114,0;	0,0;	0,0
344,8281555175781;	115,5;	0,0;	0,0
344,8535461425781;	96,75;	0,0;	0,0
344,8789367675781;	130,5;	0,0;	0,0
344,904296875;	104,25;	0,0;	0,0
344,92962646484375;	149,0;	0,0;	0,0
344,95501708984375;	124,75;	0,0;	0,0
344,9803466796875;	126,25;	0,0;	0,0
345,0056457519531;	168,75;	0,0;	0,0
345,031005859375;	147,0;	0,0;	0,0
345,0563049316406;	136,5;	0,0;	0,0
345,0816345214844;	131,75;	0,0;	0,0
345,10693359375;	163,0;	0,0;	0,0
345,1322326660156;	135,75;	0,0;	0,0
345,157470703125;	166,5;	0,0;	0,0
345,18280029296875;	157,75;	0,0;	0,0
345,2080383300781;	152,75;	0,0;	0,0
345,2333068847656;	123,0;	0,0;	0,0
345,2585754394531;	138,75;	0,0;	0,0
345,2838134765625;	133,25;	0,0;	0,0
345,30902099609375;	123,75;	0,0;	0,0
345,334228515625;	111,25;	0,0;	0,0
345,3594970703125;	123,0;	0,0;	0,0
345,38470458984375;	105,25;	0,0;	0,0
345,409912109375;	122,5;	0,0;	0,0
345,4350891113281;	104,25;	0,0;	0,0
345,46026611328125;	110,0;	0,0;	0,0
345,4854431152344;	121,0;	0,0;	0,0
345,5106201171875;	112,5;	0,0;	0,0
345,5357666015625;	126,75;	0,0;	0,0
345,5609436035156;	110,0;	0,0;	0,0
345,5860900878906;	132,0;	0,0;	0,0
345,6112365722656;	121,0;	0,0;	0,0
345,6363525390625;	112,75;	0,0;	0,0
345,6614685058594;	121,75;	0,0;	0,0
345,68658447265625;	115,5;	0,0;	0,0
345,7117004394531;	122,5;	0,0;	0,0
345,73681640625;	117,0;	0,0;	0,0
345,7618713378906;	129,75;	0,0;	0,0
345,7869567871094;	152,25;	0,0;	0,0
345,81201171875;	144,75;	0,0;	0,0
345,83709716796875;	148,25;	0,0;	0,0
345,86212158203125;	140,0;	0,0;	0,0
345,88720703125;	121,25;	0,0;	0,0
345,9122314453125;	134,5;	0,0;	0,0
345,9372253417969;	129,25;	0,0;	0,0
345,9623107910156;	146,0;	0,0;	0,0
345,9873046875;	139,5;	0,0;	0,0
346,01226806640625;	131,5;	0,0;	0,0
346,03729248046875;	104,25;	0,0;	0,0
346,062255859375;	120,0;	0,0;	0,0
346,0872497558594;	128,0;	0,0;	0,0
346,1122131347656;	117,75;	0,0;	0,0
346,1371765136719;	129,25;	0,0;	0,0
346,1621398925781;	129,0;	0,0;	0,0
346,1871032714844;	135,0;	0,0;	0,0
346,2120361328125;	121,0;	0,0;	0,0
346,2369689941406;	116,25;	0,0;	0,0
346,26190185546875;	114,5;	0,0;	0,0
346,28680419921875;	97,0;	0,0;	0,0
346,3116760253906;	123,5;	0,0;	0,0
346,33660888671875;	119,0;	0,0;	0,0
346,36151123046875;	111,0;	0,0;	0,0
346,3863525390625;	129,25;	0,0;	0,0
346,4112548828125;	147,5;	0,0;	0,0
346,43609619140625;	191,25;	0,0;	0,0
346,4609680175781;	176,0;	0,0;	0,0
346,48583984375;	234,5;	0,0;	0,0
346,5106506347656;	270,5;	0,0;	0,0
346,5354919433594;	271,75;	0,0;	0,0
346,5603332519531;	455,0;	0,0;	0,0
346,5851135253906;	375,5;	0,0;	0,0
346,60992431640625;	190,25;	0,0;	0,0
346,634765625;	141,25;	0,0;	0,0
346,6595153808594;	118,25;	0,0;	0,0
346,6842956542969;	100,5;	0,0;	0,0
346,7090759277344;	123,75;	0,0;	0,0
346,7338562011719;	123,0;	0,0;	0,0
346,75860595703125;	125,5;	0,0;	0,0
346,7833557128906;	126,5;	0,0;	0,0
346,80810546875;	130,25;	0,0;	0,0
346,83282470703125;	136,75;	0,0;	0,0
346,8575134277344;	144,0;	0,0;	0,0
346,88226318359375;	158,25;	0,0;	0,0
346,9069519042969;	113,75;	0,0;	0,0
346,93170166015625;	118,0;	0,0;	0,0
346,95635986328125;	117,25;	0,0;	0,0
346,9810485839844;	122,5;	0,0;	0,0
347,00567626953125;	119,5;	0,0;	0,0
347,0303955078125;	141,75;	0,0;	0,0
347,0550231933594;	133,0;	0,0;	0,0
347,0797119140625;	145,0;	0,0;	0,0
347,1043395996094;	136,25;	0,0;	0,0
347,1289367675781;	155,75;	0,0;	0,0
347,153564453125;	109,25;	0,0;	0,0
347,1781921386719;	131,5;	0,0;	0,0
347,2027893066406;	112,0;	0,0;	0,0
347,2274169921875;	127,0;	0,0;	0,0
347,2519836425781;	103,25;	0,0;	0,0
347,27655029296875;	106,5;	0,0;	0,0
347,3011169433594;	120,75;	0,0;	0,0
347,3257141113281;	121,5;	0,0;	0,0
347,3502502441406;	157,5;	0,0;	0,0
347,3747863769531;	175,5;	0,0;	0,0
347,39935302734375;	223,25;	0,0;	0,0
347,42388916015625;	231,75;	0,0;	0,0
347,44842529296875;	314,75;	0,0;	0,0
347,4729309082031;	349,75;	0,0;	0,0
347,4974365234375;	390,75;	0,0;	0,0
347,5219421386719;	613,5;	0,0;	0,0
347,5464172363281;	463,25;	0,0;	0,0
347,5709228515625;	262,25;	0,0;	0,0
347,5953674316406;	254,25;	0,0;	0,0
347,619873046875;	273,25;	0,0;	0,0
347,6443176269531;	405,25;	0,0;	0,0
347,66876220703125;	310,0;	0,0;	0,0
347,6932067871094;	135,5;	0,0;	0,0
347,7176208496094;	118,0;	0,0;	0,0
347,7420654296875;	117,0;	0,0;	0,0
347,7664794921875;	128,5;	0,0;	0,0
347,7908935546875;	105,0;	0,0;	0,0
347,8152770996094;	112,25;	0,0;	0,0
347,8396911621094;	108,0;	0,0;	0,0
347,8640441894531;	121,0;	0,0;	0,0
347,888427734375;	112,75;	0,0;	0,0
347,9128112792969;	127,5;	0,0;	0,0
347,9371643066406;	123,0;	0,0;	0,0
347,96148681640625;	116,5;	0,0;	0,0
347,9858703613281;	118,5;	0,0;	0,0
348,01019287109375;	107,25;	0,0;	0,0
348,03448486328125;	127,75;	0,0;	0,0
348,058837890625;	108,5;	0,0;	0,0
348,0831298828125;	116,25;	0,0;	0,0
348,107421875;	96,25;	0,0;	0,0
348,1317443847656;	115,0;	0,0;	0,0
348,156005859375;	119,75;	0,0;	0,0
348,1802673339844;	115,75;	0,0;	0,0
348,2045593261719;	121,5;	0,0;	0,0
348,22882080078125;	137,0;	0,0;	0,0
348,2530517578125;	138,5;	0,0;	0,0
348,2773132324219;	131,75;	0,0;	0,0
348,301513671875;	125,75;	0,0;	0,0
348,32574462890625;	125,75;	0,0;	0,0
348,3499450683594;	108,5;	0,0;	0,0
348,3741760253906;	134,25;	0,0;	0,0
348,39837646484375;	142,75;	0,0;	0,0
348,4225769042969;	132,25;	0,0;	0,0
348,4467468261719;	135,25;	0,0;	0,0
348,4709167480469;	128,75;	0,0;	0,0
348,4950866699219;	143,5;	0,0;	0,0
348,5192565917969;	151,75;	0,0;	0,0
348,54339599609375;	127,5;	0,0;	0,0
348,5675354003906;	130,5;	0,0;	0,0
348,5916748046875;	119,75;	0,0;	0,0
348,61578369140625;	122,75;	0,0;	0,0
348,639892578125;	107,25;	0,0;	0,0
348,6640319824219;	106,25;	0,0;	0,0
348,6880798339844;	116,25;	0,0;	0,0
348,71221923828125;	127,25;	0,0;	0,0
348,73626708984375;	109,25;	0,0;	0,0
348,7603454589844;	129,0;	0,0;	0,0
348,7843933105469;	112,5;	0,0;	0,0
348,8084716796875;	124,5;	0,0;	0,0
348,83251953125;	152,0;	0,0;	0,0
348,8565673828125;	144,5;	0,0;	0,0
348,880615234375;	190,5;	0,0;	0,0
348,90460205078125;	197,25;	0,0;	0,0
348,9286193847656;	220,75;	0,0;	0,0
348,95263671875;	308,0;	0,0;	0,0
348,97662353515625;	322,75;	0,0;	0,0
349,0006103515625;	320,75;	0,0;	0,0
349,0246276855469;	501,0;	0,0;	0,0
349,048583984375;	468,25;	0,0;	0,0
349,0725402832031;	208,5;	0,0;	0,0
349,0965270996094;	134,75;	0,0;	0,0
349,1204833984375;	146,75;	0,0;	0,0
349,1443786621094;	140,5;	0,0;	0,0
349,1683349609375;	132,0;	0,0;	0,0
349,1922302246094;	112,25;	0,0;	0,0
349,2161560058594;	151,25;	0,0;	0,0
349,2400817871094;	117,75;	0,0;	0,0
349,26397705078125;	124,75;	0,0;	0,0
349,287841796875;	136,5;	0,0;	0,0
349,311767578125;	126,0;	0,0;	0,0
349,3356018066406;	137,0;	0,0;	0,0
349,3594665527344;	107,75;	0,0;	0,0
349,38336181640625;	107,75;	0,0;	0,0
349,4071960449219;	118,75;	0,0;	0,0
349,4309997558594;	136,5;	0,0;	0,0
349,4548645019531;	127,5;	0,0;	0,0
349,4786682128906;	133,25;	0,0;	0,0
349,5024719238281;	153,25;	0,0;	0,0
349,52630615234375;	133,75;	0,0;	0,0
349,5500793457031;	132,75;	0,0;	0,0
349,5738830566406;	150,25;	0,0;	0,0
349,5976867675781;	144,5;	0,0;	0,0
349,6214294433594;	196,0;	0,0;	0,0
349,6451721191406;	181,25;	0,0;	0,0
349,6689758300781;	230,75;	0,0;	0,0
349,69268798828125;	305,0;	0,0;	0,0
349,7164306640625;	273,25;	0,0;	0,0
349,74017333984375;	297,0;	0,0;	0,0
349,7638854980469;	353,0;	0,0;	0,0
349,78759765625;	252,25;	0,0;	0,0
349,811279296875;	143,0;	0,0;	0,0
349,8349914550781;	127,0;	0,0;	0,0
349,8586730957031;	112,0;	0,0;	0,0
349,88238525390625;	126,5;	0,0;	0,0
349,9060363769531;	108,0;	0,0;	0,0
349,9296875;	95,0;	0,0;	0,0
349,95330810546875;	122,5;	0,0;	0,0
349,9770202636719;	112,5;	0,0;	0,0
350,0006408691406;	141,25;	0,0;	0,0
350,0242919921875;	121,0;	0,0;	0,0
350,0478820800781;	115,5;	0,0;	0,0
350,07147216796875;	132,25;	0,0;	0,0
350,0950622558594;	127,75;	0,0;	0,0
350,1186828613281;	101,5;	0,0;	0,0
350,14227294921875;	118,0;	0,0;	0,0
350,1658935546875;	100,75;	0,0;	0,0
350,1894226074219;	102,5;	0,0;	0,0
350,2129821777344;	110,75;	0,0;	0,0
350,23651123046875;	127,75;	0,0;	0,0
350,2601013183594;	121,0;	0,0;	0,0
350,2835998535156;	98,75;	0,0;	0,0
350,30712890625;	109,75;	0,0;	0,0
350,3306579589844;	124,75;	0,0;	0,0
350,3541564941406;	99,75;	0,0;	0,0
350,3776550292969;	115,5;	0,0;	0,0
350,40118408203125;	122,25;	0,0;	0,0
350,4246520996094;	132,75;	0,0;	0,0
350,4481201171875;	121,75;	0,0;	0,0
350,4715881347656;	123,75;	0,0;	0,0
350,4950866699219;	128,25;	0,0;	0,0
350,5185241699219;	124,5;	0,0;	0,0
350,5419616699219;	130,25;	0,0;	0,0
350,56536865234375;	135,75;	0,0;	0,0
350,58880615234375;	147,75;	0,0;	0,0
350,61224365234375;	130,0;	0,0;	0,0
350,6356506347656;	145,75;	0,0;	0,0
350,6590576171875;	131,5;	0,0;	0,0
350,68243408203125;	125,75;	0,0;	0,0
350,705810546875;	118,75;	0,0;	0,0
350,7291564941406;	118,0;	0,0;	0,0
350,7525634765625;	107,75;	0,0;	0,0
350,7759094238281;	117,25;	0,0;	0,0
350,79925537109375;	143,75;	0,0;	0,0
350,8226013183594;	161,75;	0,0;	0,0
350,845947265625;	125,0;	0,0;	0,0
350,8692626953125;	116,75;	0,0;	0,0
350,892578125;	111,5;	0,0;	0,0
350,9158935546875;	119,25;	0,0;	0,0
350,939208984375;	118,75;	0,0;	0,0
350,9624938964844;	135,5;	0,0;	0,0
350,98577880859375;	128,25;	0,0;	0,0
351,009033203125;	129,25;	0,0;	0,0
351,0323181152344;	122,5;	0,0;	0,0
351,0555725097656;	125,25;	0,0;	0,0
351,07879638671875;	108,25;	0,0;	0,0
351,10205078125;	137,5;	0,0;	0,0
351,1252746582031;	128,5;	0,0;	0,0
351,14849853515625;	121,75;	0,0;	0,0
351,1717224121094;	132,5;	0,0;	0,0
351,1949157714844;	159,0;	0,0;	0,0
351,2181396484375;	159,75;	0,0;	0,0
351,2413024902344;	159,25;	0,0;	0,0
351,2644958496094;	199,75;	0,0;	0,0
351,28765869140625;	242,25;	0,0;	0,0
351,3108215332031;	213,0;	0,0;	0,0
351,333984375;	245,75;	0,0;	0,0
351,35711669921875;	365,5;	0,0;	0,0
351,3802490234375;	281,75;	0,0;	0,0
351,40338134765625;	156,5;	0,0;	0,0
351,426513671875;	146,5;	0,0;	0,0
351,44964599609375;	136,75;	0,0;	0,0
351,4727478027344;	124,75;	0,0;	0,0
351,4958190917969;	144,75;	0,0;	0,0
351,5189208984375;	132,25;	0,0;	0,0
351,5420227050781;	120,75;	0,0;	0,0
351,5650634765625;	114,75;	0,0;	0,0
351,588134765625;	109,75;	0,0;	0,0
351,6111755371094;	133,75;	0,0;	0,0
351,6342468261719;	135,0;	0,0;	0,0
351,6572265625;	133,25;	0,0;	0,0
351,6802978515625;	102,75;	0,0;	0,0
351,7032775878906;	108,25;	0,0;	0,0
351,726318359375;	106,75;	0,0;	0,0
351,74932861328125;	128,0;	0,0;	0,0
351,7723083496094;	121,0;	0,0;	0,0
351,7952880859375;	139,25;	0,0;	0,0
351,8182678222656;	107,5;	0,0;	0,0
351,84124755859375;	103,75;	0,0;	0,0
351,86419677734375;	137,0;	0,0;	0,0
351,8871765136719;	112,0;	0,0;	0,0
351,91009521484375;	130,5;	0,0;	0,0
351,9330139160156;	163,75;	0,0;	0,0
351,9559631347656;	173,75;	0,0;	0,0
351,9788818359375;	173,5;	0,0;	0,0
352,00177001953125;	200,5;	0,0;	0,0
352,0246887207031;	250,25;	0,0;	0,0
352,0475769042969;	253,75;	0,0;	0,0
352,0704650878906;	228,75;	0,0;	0,0
352,09332275390625;	385,25;	0,0;	0,0
352,1162109375;	361,75;	0,0;	0,0
352,1390686035156;	199,0;	0,0;	0,0
352,16192626953125;	140,25;	0,0;	0,0
352,18475341796875;	155,75;	0,0;	0,0
352,2075500488281;	139,5;	0,0;	0,0
352,2304382324219;	138,25;	0,0;	0,0
352,25323486328125;	132,0;	0,0;	0,0
352,2760009765625;	134,5;	0,0;	0,0
352,2988586425781;	172,25;	0,0;	0,0
352,3216247558594;	155,25;	0,0;	0,0
352,3443908691406;	184,0;	0,0;	0,0
352,3671875;	166,5;	0,0;	0,0
352,3899230957031;	209,25;	0,0;	0,0
352,41265869140625;	220,5;	0,0;	0,0
352,4354248046875;	253,0;	0,0;	0,0
352,4581604003906;	233,0;	0,0;	0,0
352,48089599609375;	247,75;	0,0;	0,0
352,5036315917969;	312,5;	0,0;	0,0
352,52630615234375;	342,25;	0,0;	0,0
352,54901123046875;	388,5;	0,0;	0,0
352,5717468261719;	495,5;	0,0;	0,0
352,59442138671875;	576,75;	0,0;	0,0
352,6170959472656;	445,75;	0,0;	0,0
352,6397705078125;	306,0;	0,0;	0,0
352,66241455078125;	226,75;	0,0;	0,0
352,68505859375;	184,75;	0,0;	0,0
352,7077331542969;	147,25;	0,0;	0,0
352,7303466796875;	168,75;	0,0;	0,0
352,7529602050781;	155,0;	0,0;	0,0
352,7756042480469;	160,75;	0,0;	0,0
352,7982177734375;	118,75;	0,0;	0,0
352,82080078125;	136,5;	0,0;	0,0
352,8434143066406;	155,25;	0,0;	0,0
352,8659973144531;	146,0;	0,0;	0,0
352,8885803222656;	146,75;	0,0;	0,0
352,9111328125;	148,25;	0,0;	0,0
352,9337158203125;	158,25;	0,0;	0,0
352,9562683105469;	185,5;	0,0;	0,0
352,9787902832031;	140,5;	0,0;	0,0
353,0013122558594;	168,25;	0,0;	0,0
353,02386474609375;	142,5;	0,0;	0,0
353,04632568359375;	122,5;	0,0;	0,0
353,0688781738281;	140,75;	0,0;	0,0
353,0913391113281;	148,25;	0,0;	0,0
353,1138610839844;	149,5;	0,0;	0,0
353,1363525390625;	181,25;	0,0;	0,0
353,1588134765625;	155,75;	0,0;	0,0
353,1812744140625;	186,75;	0,0;	0,0
353,2037353515625;	197,5;	0,0;	0,0
353,2261657714844;	249,75;	0,0;	0,0
353,24859619140625;	240,0;	0,0;	0,0
353,27105712890625;	245,25;	0,0;	0,0
353,2934875488281;	291,75;	0,0;	0,0
353,3158874511719;	195,25;	0,0;	0,0
353,3382873535156;	144,25;	0,0;	0,0
353,36065673828125;	126,0;	0,0;	0,0
353,383056640625;	119,5;	0,0;	0,0
353,40545654296875;	114,75;	0,0;	0,0
353,4278259277344;	132,5;	0,0;	0,0
353,4501647949219;	154,5;	0,0;	0,0
353,4725341796875;	163,0;	0,0;	0,0
353,4949035644531;	157,75;	0,0;	0,0
353,5172119140625;	168,75;	0,0;	0,0
353,53955078125;	207,75;	0,0;	0,0
353,5618591308594;	206,25;	0,0;	0,0
353,5841369628906;	183,0;	0,0;	0,0
353,6064758300781;	231,75;	0,0;	0,0
353,6287536621094;	292,25;	0,0;	0,0
353,6510314941406;	250,25;	0,0;	0,0
353,6733093261719;	187,5;	0,0;	0,0
353,69561767578125;	152,0;	0,0;	0,0
353,7178649902344;	167,75;	0,0;	0,0
353,7401123046875;	180,0;	0,0;	0,0
353,7623596191406;	177,0;	0,0;	0,0
353,7845458984375;	152,75;	0,0;	0,0
353,8067932128906;	148,5;	0,0;	0,0
353,8290100097656;	132,75;	0,0;	0,0
353,8512268066406;	142,0;	0,0;	0,0
353,8734436035156;	124,0;	0,0;	0,0
353,8955993652344;	152,25;	0,0;	0,0
353,91778564453125;	170,25;	0,0;	0,0
353,9399719238281;	174,75;	0,0;	0,0
353,9621276855469;	208,0;	0,0;	0,0
353,9842834472656;	230,5;	0,0;	0,0
354,00640869140625;	304,5;	0,0;	0,0
354,028564453125;	288,0;	0,0;	0,0
354,0506896972656;	303,25;	0,0;	0,0
354,0728454589844;	388,0;	0,0;	0,0
354,0949401855469;	400,75;	0,0;	0,0
354,1170349121094;	321,75;	0,0;	0,0
354,1391296386719;	261,5;	0,0;	0,0
354,1612243652344;	300,5;	0,0;	0,0
354,18328857421875;	340,5;	0,0;	0,0
354,20538330078125;	244,25;	0,0;	0,0
354,2274475097656;	181,25;	0,0;	0,0
354,24945068359375;	158,75;	0,0;	0,0
354,271484375;	140,75;	0,0;	0,0
354,2935791015625;	128,25;	0,0;	0,0
354,3155822753906;	129,0;	0,0;	0,0
354,3376159667969;	141,0;	0,0;	0,0
354,359619140625;	134,25;	0,0;	0,0
354,381591796875;	133,25;	0,0;	0,0
354,4035949707031;	119,5;	0,0;	0,0
354,42559814453125;	132,0;	0,0;	0,0
354,4475402832031;	142,5;	0,0;	0,0
354,4695129394531;	151,0;	0,0;	0,0
354,4914855957031;	146,5;	0,0;	0,0
354,513427734375;	151,75;	0,0;	0,0
354,53533935546875;	164,0;	0,0;	0,0
354,55731201171875;	148,25;	0,0;	0,0
354,5792236328125;	118,0;	0,0;	0,0
354,6011047363281;	122,25;	0,0;	0,0
354,623046875;	157,25;	0,0;	0,0
354,6449279785156;	125,5;	0,0;	0,0
354,66680908203125;	129,5;	0,0;	0,0
354,6886901855469;	143,0;	0,0;	0,0
354,7105712890625;	145,0;	0,0;	0,0
354,732421875;	118,5;	0,0;	0,0
354,7543029785156;	128,25;	0,0;	0,0
354,7761535644531;	121,75;	0,0;	0,0
354,7979431152344;	127,0;	0,0;	0,0
354,81982421875;	121,0;	0,0;	0,0
354,84161376953125;	122,75;	0,0;	0,0
354,8634338378906;	115,5;	0,0;	0,0
354,88525390625;	124,25;	0,0;	0,0
354,9070129394531;	139,5;	0,0;	0,0
354,9288024902344;	134,0;	0,0;	0,0
354,9505920410156;	122,25;	0,0;	0,0
354,97235107421875;	147,25;	0,0;	0,0
354,99407958984375;	136,5;	0,0;	0,0
355,015869140625;	128,75;	0,0;	0,0
355,03759765625;	111,0;	0,0;	0,0
355,059326171875;	114,0;	0,0;	0,0
355,0810852050781;	131,5;	0,0;	0,0
355,1027526855469;	118,75;	0,0;	0,0
355,1244812011719;	134,25;	0,0;	0,0
355,1462097167969;	139,0;	0,0;	0,0
355,1678771972656;	175,5;	0,0;	0,0
355,1895446777344;	157,25;	0,0;	0,0
355,2112121582031;	171,75;	0,0;	0,0
355,23291015625;	165,5;	0,0;	0,0
355,2545471191406;	218,0;	0,0;	0,0
355,27618408203125;	229,25;	0,0;	0,0
355,2978515625;	233,5;	0,0;	0,0
355,3194580078125;	292,75;	0,0;	0,0
355,341064453125;	329,25;	0,0;	0,0
355,3627014160156;	335,5;	0,0;	0,0
355,38427734375;	390,5;	0,0;	0,0
355,4058837890625;	387,25;	0,0;	0,0
355,4274597167969;	343,75;	0,0;	0,0
355,44903564453125;	486,0;	0,0;	0,0
355,4705810546875;	530,25;	0,0;	0,0
355,4921569824219;	372,25;	0,0;	0,0
355,5137023925781;	232,5;	0,0;	0,0
355,5352783203125;	190,25;	0,0;	0,0
355,5567932128906;	192,5;	0,0;	0,0
355,5783386230469;	237,0;	0,0;	0,0
355,5998229980469;	213,5;	0,0;	0,0
355,6213684082031;	215,25;	0,0;	0,0
355,6428527832031;	230,5;	0,0;	0,0
355,6643371582031;	307,75;	0,0;	0,0
355,685791015625;	250,0;	0,0;	0,0
355,7073059082031;	237,75;	0,0;	0,0
355,7287292480469;	266,5;	0,0;	0,0
355,7502136230469;	342,25;	0,0;	0,0
355,7716369628906;	265,75;	0,0;	0,0
355,7930908203125;	286,0;	0,0;	0,0
355,81451416015625;	494,75;	0,0;	0,0
355,8359375;	448,75;	0,0;	0,0
355,8573303222656;	278,5;	0,0;	0,0
355,8787536621094;	170,75;	0,0;	0,0
355,900146484375;	132,5;	0,0;	0,0
355,9215393066406;	159,25;	0,0;	0,0
355,9429016113281;	126,75;	0,0;	0,0
355,96429443359375;	145,25;	0,0;	0,0
355,9856262207031;	114,25;	0,0;	0,0
356,00701904296875;	113,75;	0,0;	0,0
356,0283203125;	148,0;	0,0;	0,0
356,0496520996094;	142,25;	0,0;	0,0
356,0710144042969;	118,0;	0,0;	0,0
356,0923156738281;	119,0;	0,0;	0,0
356,11358642578125;	120,25;	0,0;	0,0
356,1349182128906;	126,5;	0,0;	0,0
356,15618896484375;	119,5;	0,0;	0,0
356,1774597167969;	135,5;	0,0;	0,0
356,1987609863281;	118,5;	0,0;	0,0
356,22003173828125;	122,5;	0,0;	0,0
356,24127197265625;	113,75;	0,0;	0,0
356,26251220703125;	130,25;	0,0;	0,0
356,28375244140625;	133,25;	0,0;	0,0
356,30499267578125;	142,75;	0,0;	0,0
356,3262023925781;	184,25;	0,0;	0,0
356,347412109375;	218,75;	0,0;	0,0
356,36859130859375;	271,5;	0,0;	0,0
356,38983154296875;	249,0;	0,0;	0,0
356,4109802246094;	399,75;	0,0;	0,0
356,4321594238281;	509,0;	0,0;	0,0
356,453369140625;	467,75;	0,0;	0,0
356,4745178222656;	427,75;	0,0;	0,0
356,4956359863281;	694,5;	0,0;	0,0
356,5168151855469;	869,75;	0,0;	0,0
356,5379333496094;	537,0;	0,0;	0,0
356,5590515136719;	260,75;	0,0;	0,0
356,5801696777344;	175,75;	0,0;	0,0
356,6012878417969;	161,25;	0,0;	0,0
356,62237548828125;	169,25;	0,0;	0,0
356,6434326171875;	138,0;	0,0;	0,0
356,66455078125;	164,75;	0,0;	0,0
356,68560791015625;	154,75;	0,0;	0,0
356,7066650390625;	146,5;	0,0;	0,0
356,7277526855469;	164,0;	0,0;	0,0
356,7487487792969;	147,0;	0,0;	0,0
356,7698059082031;	213,75;	0,0;	0,0
356,79083251953125;	261,75;	0,0;	0,0
356,81182861328125;	325,25;	0,0;	0,0
356,8328552246094;	396,5;	0,0;	0,0
356,8538818359375;	440,5;	0,0;	0,0
356,8748474121094;	584,75;	0,0;	0,0
356,8958435058594;	776,25;	0,0;	0,0
356,9168395996094;	846,0;	0,0;	0,0
356,9377746582031;	759,75;	0,0;	0,0
356,9587707519531;	998,25;	0,0;	0,0
356,97967529296875;	1382,75;	0,0;	0,0
357,0006103515625;	1202,0;	0,0;	0,0
357,02154541015625;	574,5;	0,0;	0,0
357,0425109863281;	305,75;	0,0;	0,0
357,0633850097656;	233,5;	0,0;	0,0
357,08428955078125;	222,25;	0,0;	0,0
357,1051940917969;	183,0;	0,0;	0,0
357,1260986328125;	185,25;	0,0;	0,0
357,1469421386719;	189,25;	0,0;	0,0
357,1678466796875;	225,25;	0,0;	0,0
357,188720703125;	197,0;	0,0;	0,0
357,2095642089844;	176,0;	0,0;	0,0
357,23040771484375;	167,5;	0,0;	0,0
357,251220703125;	150,0;	0,0;	0,0
357,27203369140625;	158,5;	0,0;	0,0
357,2928771972656;	176,5;	0,0;	0,0
357,3136901855469;	166,5;	0,0;	0,0
357,33447265625;	175,25;	0,0;	0,0
357,3553161621094;	191,0;	0,0;	0,0
357,3760681152344;	193,25;	0,0;	0,0
357,3968200683594;	158,75;	0,0;	0,0
357,4176330566406;	166,75;	0,0;	0,0
357,4383544921875;	137,0;	0,0;	0,0
357,4591064453125;	161,0;	0,0;	0,0
357,4798583984375;	189,0;	0,0;	0,0
357,5005798339844;	188,75;	0,0;	0,0
357,52130126953125;	145,25;	0,0;	0,0
357,5420227050781;	123,0;	0,0;	0,0
357,562744140625;	146,0;	0,0;	0,0
357,5834045410156;	131,0;	0,0;	0,0
357,6041259765625;	130,75;	0,0;	0,0
357,6247863769531;	110,5;	0,0;	0,0
357,64544677734375;	150,5;	0,0;	0,0
357,6661376953125;	148,5;	0,0;	0,0
357,686767578125;	137,0;	0,0;	0,0
357,7073669433594;	149,75;	0,0;	0,0
357,72802734375;	151,25;	0,0;	0,0
357,7486572265625;	160,75;	0,0;	0,0
357,769287109375;	159,25;	0,0;	0,0
357,7898864746094;	128,0;	0,0;	0,0
357,81048583984375;	139,25;	0,0;	0,0
357,8310546875;	208,0;	0,0;	0,0
357,8516845703125;	214,25;	0,0;	0,0
357,8722229003906;	185,0;	0,0;	0,0
357,8927917480469;	203,5;	0,0;	0,0
357,9132995605469;	278,0;	0,0;	0,0
357,93389892578125;	359,0;	0,0;	0,0
357,9544372558594;	399,0;	0,0;	0,0
357,9749755859375;	459,5;	0,0;	0,0
357,9954833984375;	660,75;	0,0;	0,0
358,0159912109375;	778,0;	0,0;	0,0
358,0364990234375;	678,5;	0,0;	0,0
358,0569763183594;	800,0;	0,0;	0,0
358,07745361328125;	1246,25;	0,0;	0,0
358,09796142578125;	1365,25;	0,0;	0,0
358,118408203125;	831,5;	0,0;	0,0
358,13885498046875;	388,25;	0,0;	0,0
358,1593017578125;	264,5;	0,0;	0,0
358,17974853515625;	240,0;	0,0;	0,0
358,2001647949219;	207,0;	0,0;	0,0
358,22064208984375;	163,25;	0,0;	0,0
358,24102783203125;	165,5;	0,0;	0,0
358,26141357421875;	156,25;	0,0;	0,0
358,2818298339844;	174,5;	0,0;	0,0
358,3022155761719;	191,5;	0,0;	0,0
358,3226013183594;	215,5;	0,0;	0,0
358,34295654296875;	268,25;	0,0;	0,0
358,36334228515625;	289,5;	0,0;	0,0
358,3836975097656;	280,75;	0,0;	0,0
358,40399169921875;	339,25;	0,0;	0,0
358,4243469238281;	459,25;	0,0;	0,0
358,4446716308594;	449,0;	0,0;	0,0
358,4649658203125;	475,75;	0,0;	0,0
358,4853210449219;	531,75;	0,0;	0,0
358,505615234375;	626,0;	0,0;	0,0
358,52587890625;	567,5;	0,0;	0,0
358,5461730957031;	481,0;	0,0;	0,0
358,5664367675781;	438,25;	0,0;	0,0
358,5867004394531;	445,75;	0,0;	0,0
358,6069641113281;	366,0;	0,0;	0,0
358,627197265625;	257,25;	0,0;	0,0
358,6474304199219;	339,5;	0,0;	0,0
358,6676940917969;	474,0;	0,0;	0,0
358,6878967285156;	381,25;	0,0;	0,0
358,70806884765625;	233,5;	0,0;	0,0
358,7283020019531;	198,0;	0,0;	0,0
358,7485046386719;	189,75;	0,0;	0,0
358,7686767578125;	162,0;	0,0;	0,0
358,78887939453125;	167,0;	0,0;	0,0
358,80902099609375;	174,75;	0,0;	0,0
358,8291931152344;	165,5;	0,0;	0,0
358,8493347167969;	195,75;	0,0;	0,0
358,8694763183594;	164,0;	0,0;	0,0
358,88958740234375;	167,0;	0,0;	0,0
358,90972900390625;	175,25;	0,0;	0,0
358,9298400878906;	123,25;	0,0;	0,0
358,949951171875;	135,75;	0,0;	0,0
358,9700622558594;	114,5;	0,0;	0,0
358,9901428222656;	125,0;	0,0;	0,0
359,01019287109375;	106,5;	0,0;	0,0
359,0302734375;	119,5;	0,0;	0,0
359,05035400390625;	121,75;	0,0;	0,0
359,0704040527344;	115,75;	0,0;	0,0
359,0904541015625;	134,5;	0,0;	0,0
359,1104736328125;	97,75;	0,0;	0,0
359,1304931640625;	118,75;	0,0;	0,0
359,1505126953125;	118,75;	0,0;	0,0
359,1705322265625;	114,75;	0,0;	0,0
359,1905212402344;	148,25;	0,0;	0,0
359,21051025390625;	126,25;	0,0;	0,0
359,23046875;	134,75;	0,0;	0,0
359,2504577636719;	128,75;	0,0;	0,0
359,2704162597656;	118,25;	0,0;	0,0
359,2903747558594;	144,0;	0,0;	0,0
359,310302734375;	176,0;	0,0;	0,0
359,33026123046875;	185,25;	0,0;	0,0
359,3501892089844;	166,25;	0,0;	0,0
359,3700866699219;	125,5;	0,0;	0,0
359,3899841308594;	135,0;	0,0;	0,0
359,409912109375;	153,0;	0,0;	0,0
359,4297790527344;	168,5;	0,0;	0,0
359,44970703125;	171,5;	0,0;	0,0
359,4695739746094;	126,75;	0,0;	0,0
359,4894104003906;	130,0;	0,0;	0,0
359,50927734375;	118,5;	0,0;	0,0
359,5291442871094;	107,75;	0,0;	0,0
359,5489807128906;	110,75;	0,0;	0,0
359,56878662109375;	108,75;	0,0;	0,0
359,588623046875;	116,5;	0,0;	0,0
359,6084289550781;	95,75;	0,0;	0,0
359,62823486328125;	109,25;	0,0;	0,0
359,6480407714844;	109,25;	0,0;	0,0
359,6678161621094;	118,75;	0,0;	0,0
359,6875915527344;	129,25;	0,0;	0,0
359,7073669433594;	125,75;	0,0;	0,0
359,72711181640625;	122,0;	0,0;	0,0
359,7468566894531;	117,0;	0,0;	0,0
359,7666320800781;	124,75;	0,0;	0,0
359,7863464355469;	108,5;	0,0;	0,0
359,8060607910156;	104,25;	0,0;	0,0
359,8257751464844;	109,5;	0,0;	0,0
359,8454895019531;	129,5;	0,0;	0,0
359,86517333984375;	133,75;	0,0;	0,0
359,8848876953125;	103,25;	0,0;	0,0
359,904541015625;	114,0;	0,0;	0,0
359,9241943359375;	127,25;	0,0;	0,0
359,9438781738281;	121,75;	0,0;	0,0
359,9635314941406;	114,75;	0,0;	0,0
359,983154296875;	124,0;	0,0;	0,0
360,0028076171875;	111,5;	0,0;	0,0
360,0224304199219;	109,5;	0,0;	0,0
360,04205322265625;	100,75;	0,0;	0,0
360,0616760253906;	125,25;	0,0;	0,0
360,0812683105469;	104,0;	0,0;	0,0
360,100830078125;	138,75;	0,0;	0,0
360,1204528808594;	111,75;	0,0;	0,0
360,1399841308594;	108,25;	0,0;	0,0
360,1595764160156;	142,0;	0,0;	0,0
360,17913818359375;	171,5;	0,0;	0,0
360,19866943359375;	163,75;	0,0;	0,0
360,21820068359375;	166,25;	0,0;	0,0
360,23773193359375;	156,5;	0,0;	0,0
360,25726318359375;	165,5;	0,0;	0,0
360,2767333984375;	174,75;	0,0;	0,0
360,2962646484375;	188,25;	0,0;	0,0
360,31573486328125;	153,0;	0,0;	0,0
360,3352355957031;	148,25;	0,0;	0,0
360,3547058105469;	158,25;	0,0;	0,0
360,3741760253906;	144,25;	0,0;	0,0
360,39361572265625;	158,0;	0,0;	0,0
360,4130859375;	188,5;	0,0;	0,0
360,4325256347656;	201,5;	0,0;	0,0
360,4519348144531;	192,5;	0,0;	0,0
360,47137451171875;	200,0;	0,0;	0,0
360,49078369140625;	256,0;	0,0;	0,0
360,5101623535156;	302,25;	0,0;	0,0
360,52960205078125;	278,75;	0,0;	0,0
360,5489807128906;	252,25;	0,0;	0,0
360,5683288574219;	216,5;	0,0;	0,0
360,5876770019531;	169,0;	0,0;	0,0
360,6070556640625;	202,5;	0,0;	0,0
360,62640380859375;	303,25;	0,0;	0,0
360,6457824707031;	304,5;	0,0;	0,0
360,66510009765625;	236,75;	0,0;	0,0
360,6844177246094;	197,5;	0,0;	0,0
360,7037048339844;	229,25;	0,0;	0,0
360,7230224609375;	193,0;	0,0;	0,0
360,7423095703125;	234,25;	0,0;	0,0
360,7616271972656;	330,25;	0,0;	0,0
360,7808837890625;	340,75;	0,0;	0,0
360,8001403808594;	277,5;	0,0;	0,0
360,81939697265625;	314,5;	0,0;	0,0
360,8386535644531;	439,0;	0,0;	0,0
360,85791015625;	605,0;	0,0;	0,0
360,8771667480469;	462,25;	0,0;	0,0
360,8963623046875;	296,25;	0,0;	0,0
360,91558837890625;	215,25;	0,0;	0,0
360,9347839355469;	183,0;	0,0;	0,0
360,9540100097656;	180,0;	0,0;	0,0
360,97314453125;	204,5;	0,0;	0,0
360,9923400878906;	244,0;	0,0;	0,0
361,01153564453125;	191,0;	0,0;	0,0
361,0306701660156;	157,0;	0,0;	0,0
361,0498046875;	132,0;	0,0;	0,0
361,0689697265625;	107,25;	0,0;	0,0
361,0881042480469;	125,5;	0,0;	0,0
361,1072082519531;	132,0;	0,0;	0,0
361,1263732910156;	123,0;	0,0;	0,0
361,14544677734375;	120,0;	0,0;	0,0
361,16455078125;	131,0;	0,0;	0,0
361,18365478515625;	144,75;	0,0;	0,0
361,2027282714844;	141,0;	0,0;	0,0
361,2217712402344;	130,0;	0,0;	0,0
361,2408752441406;	126,0;	0,0;	0,0
361,2599182128906;	120,0;	0,0;	0,0
361,2789611816406;	123,25;	0,0;	0,0
361,2979736328125;	132,0;	0,0;	0,0
361,3170166015625;	116,5;	0,0;	0,0
361,3360290527344;	117,5;	0,0;	0,0
361,35504150390625;	115,5;	0,0;	0,0
361,3740539550781;	121,5;	0,0;	0,0
361,3930358886719;	108,0;	0,0;	0,0
361,4119873046875;	110,75;	0,0;	0,0
361,4309997558594;	114,75;	0,0;	0,0
361,449951171875;	118,25;	0,0;	0,0
361,46893310546875;	115,75;	0,0;	0,0
361,48785400390625;	108,5;	0,0;	0,0
361,50677490234375;	127,25;	0,0;	0,0
361,52569580078125;	127,75;	0,0;	0,0
361,5446472167969;	112,5;	0,0;	0,0
361,56353759765625;	133,25;	0,0;	0,0
361,58245849609375;	126,75;	0,0;	0,0
361,6013488769531;	142,0;	0,0;	0,0
361,6202392578125;	138,75;	0,0;	0,0
361,6390686035156;	137,75;	0,0;	0,0
361,657958984375;	148,0;	0,0;	0,0
361,67681884765625;	155,75;	0,0;	0,0
361,6956787109375;	189,5;	0,0;	0,0
361,7145080566406;	212,75;	0,0;	0,0
361,73333740234375;	271,25;	0,0;	0,0
361,75213623046875;	351,0;	0,0;	0,0
361,7709655761719;	334,25;	0,0;	0,0
361,78973388671875;	319,75;	0,0;	0,0
361,8085632324219;	327,25;	0,0;	0,0
361,82733154296875;	339,5;	0,0;	0,0
361,8460998535156;	493,5;	0,0;	0,0
361,8648681640625;	445,5;	0,0;	0,0
361,8836669921875;	260,75;	0,0;	0,0
361,9023742675781;	187,5;	0,0;	0,0
361,921142578125;	139,75;	0,0;	0,0
361,9398498535156;	119,75;	0,0;	0,0
361,9585876464844;	145,75;	0,0;	0,0
361,9772644042969;	124,75;	0,0;	0,0
361,9960021972656;	139,75;	0,0;	0,0
362,0146789550781;	141,25;	0,0;	0,0
362,03338623046875;	167,25;	0,0;	0,0
362,05206298828125;	173,75;	0,0;	0,0
362,0707092285156;	131,75;	0,0;	0,0
362,08935546875;	161,75;	0,0;	0,0
362,1080322265625;	203,5;	0,0;	0,0
362,1266784667969;	214,0;	0,0;	0,0
362,1452941894531;	180,25;	0,0;	0,0
362,1639099121094;	158,25;	0,0;	0,0
362,1825256347656;	159,25;	0,0;	0,0
362,2011413574219;	173,25;	0,0;	0,0
362,2197265625;	128,5;	0,0;	0,0
362,2383117675781;	127,0;	0,0;	0,0
362,2568664550781;	133,5;	0,0;	0,0
362,27545166015625;	116,0;	0,0;	0,0
362,2940368652344;	127,5;	0,0;	0,0
362,31256103515625;	135,75;	0,0;	0,0
362,33111572265625;	122,5;	0,0;	0,0
362,3496398925781;	132,75;	0,0;	0,0
362,3681640625;	105,5;	0,0;	0,0
362,3866882324219;	124,75;	0,0;	0,0
362,4051818847656;	107,75;	0,0;	0,0
362,4236755371094;	111,25;	0,0;	0,0
362,442138671875;	114,25;	0,0;	0,0
362,46063232421875;	115,75;	0,0;	0,0
362,4790954589844;	126,25;	0,0;	0,0
362,4975891113281;	100,25;	0,0;	0,0
362,5160217285156;	119,5;	0,0;	0,0
362,5344543457031;	97,0;	0,0;	0,0
362,5528564453125;	113,25;	0,0;	0,0
362,5713195800781;	107,0;	0,0;	0,0
362,5897216796875;	105,5;	0,0;	0,0
362,608154296875;	96,75;	0,0;	0,0
362,62652587890625;	98,0;	0,0;	0,0
362,6448974609375;	88,5;	0,0;	0,0
362,66326904296875;	126,0;	0,0;	0,0
362,6816711425781;	101,25;	0,0;	0,0
362,7000427246094;	98,25;	0,0;	0,0
362,7183837890625;	109,5;	0,0;	0,0
362,7367248535156;	104,25;	0,0;	0,0
362,75506591796875;	113,5;	0,0;	0,0
362,7733459472656;	113,5;	0,0;	0,0
362,7917175292969;	113,5;	0,0;	0,0
362,80999755859375;	112,75;	0,0;	0,0
362,82830810546875;	111,0;	0,0;	0,0
362,8465881347656;	94,25;	0,0;	0,0
362,8648681640625;	105,75;	0,0;	0,0
362,88311767578125;	121,75;	0,0;	0,0
362,9013977050781;	135,75;	0,0;	0,0
362,9196472167969;	120,5;	0,0;	0,0
362,9378967285156;	144,5;	0,0;	0,0
362,95611572265625;	152,75;	0,0;	0,0
362,9743347167969;	157,25;	0,0;	0,0
362,9925231933594;	176,25;	0,0;	0,0
363,0107727050781;	187,25;	0,0;	0,0
363,0289611816406;	258,75;	0,0;	0,0
363,0471496582031;	268,75;	0,0;	0,0
363,0653381347656;	192,0;	0,0;	0,0
363,08349609375;	246,5;	0,0;	0,0
363,10162353515625;	329,0;	0,0;	0,0
363,11981201171875;	381,25;	0,0;	0,0
363,137939453125;	379,75;	0,0;	0,0
363,1560974121094;	236,0;	0,0;	0,0
363,1742248535156;	160,75;	0,0;	0,0
363,19232177734375;	140,0;	0,0;	0,0
363,2104187011719;	137,5;	0,0;	0,0
363,2285461425781;	118,25;	0,0;	0,0
363,24664306640625;	129,0;	0,0;	0,0
363,2646789550781;	128,75;	0,0;	0,0
363,28277587890625;	119,0;	0,0;	0,0
363,3008117675781;	103,25;	0,0;	0,0
363,3188781738281;	117,5;	0,0;	0,0
363,3369140625;	104,5;	0,0;	0,0
363,3549499511719;	123,75;	0,0;	0,0
363,3729553222656;	108,0;	0,0;	0,0
363,3909912109375;	126,0;	0,0;	0,0
363,40899658203125;	108,25;	0,0;	0,0
363,427001953125;	112,25;	0,0;	0,0
363,44500732421875;	125,25;	0,0;	0,0
363,4629821777344;	105,5;	0,0;	0,0
363,48089599609375;	107,5;	0,0;	0,0
363,4989013671875;	115,0;	0,0;	0,0
363,516845703125;	99,5;	0,0;	0,0
363,5347900390625;	120,5;	0,0;	0,0
363,5527038574219;	108,75;	0,0;	0,0
363,5706481933594;	117,25;	0,0;	0,0
363,5885314941406;	127,0;	0,0;	0,0
363,6064758300781;	103,25;	0,0;	0,0
363,6243591308594;	97,25;	0,0;	0,0
363,6422424316406;	98,75;	0,0;	0,0
363,6601257324219;	125,5;	0,0;	0,0
363,6780090332031;	118,5;	0,0;	0,0
363,69586181640625;	118,5;	0,0;	0,0
363,7137451171875;	120,5;	0,0;	0,0
363,7315673828125;	127,25;	0,0;	0,0
363,7493896484375;	110,25;	0,0;	0,0
363,7671813964844;	101,25;	0,0;	0,0
363,7850341796875;	119,25;	0,0;	0,0
363,8028259277344;	111,25;	0,0;	0,0
363,8206481933594;	111,5;	0,0;	0,0
363,83843994140625;	114,5;	0,0;	0,0
363,8561706542969;	118,0;	0,0;	0,0
363,87396240234375;	101,0;	0,0;	0,0
363,8917236328125;	121,5;	0,0;	0,0
363,9094543457031;	0,0;	0,0;	0,0
