-0.5	1.5
Integration time [ms]:	1.05
Averaging Nr. [scans]:1
Smoothing Nr. [pixels]:0
Data measured with spectrometer [name]:b'1703277U8'
Wave	;Sample	;Dark	;Reference	;Scope	
[nm]	;[counts]	;[counts]	;[counts]	
 
493,2108154296875;	602,0;	0,0;	0,0
493,2895202636719;	534,75;	0,0;	0,0
493,36822509765625;	345,5;	0,0;	0,0
493,4468994140625;	303,0;	0,0;	0,0
493,52557373046875;	336,75;	0,0;	0,0
493,6042175292969;	371,0;	0,0;	0,0
493,6828918457031;	510,25;	0,0;	0,0
493,7615051269531;	557,75;	0,0;	0,0
493,8401184082031;	389,0;	0,0;	0,0
493,9187316894531;	315,25;	0,0;	0,0
493,9973449707031;	310,5;	0,0;	0,0
494,075927734375;	326,0;	0,0;	0,0
494,1545104980469;	300,75;	0,0;	0,0
494,2330627441406;	304,0;	0,0;	0,0
494,3116149902344;	312,0;	0,0;	0,0
494,3901672363281;	307,75;	0,0;	0,0
494,4686584472656;	370,0;	0,0;	0,0
494,5472106933594;	358,25;	0,0;	0,0
494,6257019042969;	343,0;	0,0;	0,0
494,7041931152344;	315,5;	0,0;	0,0
494,78265380859375;	324,75;	0,0;	0,0
494,86114501953125;	352,5;	0,0;	0,0
494,9395751953125;	348,5;	0,0;	0,0
495,0180358886719;	332,0;	0,0;	0,0
495,096435546875;	375,75;	0,0;	0,0
495,1748962402344;	361,75;	0,0;	0,0
495,2532653808594;	369,75;	0,0;	0,0
495,3316650390625;	464,25;	0,0;	0,0
495,4100341796875;	649,5;	0,0;	0,0
495,4884338378906;	1692,75;	0,0;	0,0
495,5667724609375;	4995,75;	0,0;	0,0
495,6451110839844;	5359,75;	0,0;	0,0
495,72344970703125;	1236,5;	0,0;	0,0
495,8017883300781;	490,75;	0,0;	0,0
495,8800964355469;	393,25;	0,0;	0,0
495,9583435058594;	376,25;	0,0;	0,0
496,0366516113281;	365,75;	0,0;	0,0
496,11492919921875;	364,75;	0,0;	0,0
496,19317626953125;	350,75;	0,0;	0,0
496,27142333984375;	344,5;	0,0;	0,0
496,34967041015625;	408,0;	0,0;	0,0
496,4278869628906;	564,25;	0,0;	0,0
496,506103515625;	582,25;	0,0;	0,0
496,58428955078125;	428,25;	0,0;	0,0
496,6625061035156;	437,75;	0,0;	0,0
496,74066162109375;	408,0;	0,0;	0,0
496,8188171386719;	414,5;	0,0;	0,0
496,89697265625;	433,5;	0,0;	0,0
496,9751281738281;	404,0;	0,0;	0,0
497,0532531738281;	383,25;	0,0;	0,0
497,1313171386719;	417,5;	0,0;	0,0
497,2094421386719;	401,75;	0,0;	0,0
497,28753662109375;	378,25;	0,0;	0,0
497,3656005859375;	366,5;	0,0;	0,0
497,44366455078125;	354,5;	0,0;	0,0
497,521728515625;	372,75;	0,0;	0,0
497,59979248046875;	389,25;	0,0;	0,0
497,67779541015625;	463,0;	0,0;	0,0
497,7558288574219;	494,75;	0,0;	0,0
497,83380126953125;	463,25;	0,0;	0,0
497,91180419921875;	446,25;	0,0;	0,0
497,9897766113281;	573,5;	0,0;	0,0
498,0677490234375;	866,0;	0,0;	0,0
498,1457214355469;	1105,25;	0,0;	0,0
498,2236633300781;	987,0;	0,0;	0,0
498,30157470703125;	808,5;	0,0;	0,0
498,3794860839844;	818,25;	0,0;	0,0
498,4573974609375;	663,5;	0,0;	0,0
498,5353088378906;	419,0;	0,0;	0,0
498,6131896972656;	410,5;	0,0;	0,0
498,6910705566406;	453,75;	0,0;	0,0
498,7688903808594;	440,0;	0,0;	0,0
498,84674072265625;	410,75;	0,0;	0,0
498,924560546875;	439,0;	0,0;	0,0
499,0024108886719;	501,75;	0,0;	0,0
499,0802307128906;	399,75;	0,0;	0,0
499,1579895019531;	409,5;	0,0;	0,0
499,23577880859375;	513,25;	0,0;	0,0
499,3135681152344;	461,0;	0,0;	0,0
499,3913269042969;	378,25;	0,0;	0,0
499,4690856933594;	349,75;	0,0;	0,0
499,5467834472656;	348,75;	0,0;	0,0
499,6245422363281;	346,5;	0,0;	0,0
499,7022399902344;	357,5;	0,0;	0,0
499,7799377441406;	371,5;	0,0;	0,0
499,8576354980469;	427,75;	0,0;	0,0
499,935302734375;	564,25;	0,0;	0,0
500,0129699707031;	937,25;	0,0;	0,0
500,090576171875;	854,75;	0,0;	0,0
500,1682434082031;	492,25;	0,0;	0,0
500,2458801269531;	519,25;	0,0;	0,0
500,323486328125;	654,0;	0,0;	0,0
500,40106201171875;	1313,5;	0,0;	0,0
500,47869873046875;	1502,75;	0,0;	0,0
500,5562744140625;	738,5;	0,0;	0,0
500,6337890625;	480,0;	0,0;	0,0
500,71136474609375;	429,0;	0,0;	0,0
500,7889099121094;	380,75;	0,0;	0,0
500,8664245605469;	407,25;	0,0;	0,0
500,9439392089844;	474,25;	0,0;	0,0
501,02142333984375;	719,0;	0,0;	0,0
501,09893798828125;	657,0;	0,0;	0,0
501,1764221191406;	426,25;	0,0;	0,0
501,25384521484375;	520,0;	0,0;	0,0
501,33135986328125;	726,0;	0,0;	0,0
501,40875244140625;	600,5;	0,0;	0,0
501,4862060546875;	437,5;	0,0;	0,0
501,5636291503906;	440,5;	0,0;	0,0
501,6410217285156;	611,0;	0,0;	0,0
501,7184143066406;	714,0;	0,0;	0,0
501,7957763671875;	406,75;	0,0;	0,0
501,8731384277344;	365,75;	0,0;	0,0
501,95050048828125;	386,75;	0,0;	0,0
502,0278625488281;	491,0;	0,0;	0,0
502,10516357421875;	570,0;	0,0;	0,0
502,1824951171875;	383,25;	0,0;	0,0
502,2597961425781;	373,25;	0,0;	0,0
502,33709716796875;	390,25;	0,0;	0,0
502,41436767578125;	401,0;	0,0;	0,0
502,4916687011719;	456,5;	0,0;	0,0
502,56890869140625;	551,5;	0,0;	0,0
502,6461486816406;	522,5;	0,0;	0,0
502,7233581542969;	449,0;	0,0;	0,0
502,8006286621094;	361,5;	0,0;	0,0
502,8778076171875;	359,75;	0,0;	0,0
502,9549865722656;	351,75;	0,0;	0,0
503,03216552734375;	341,75;	0,0;	0,0
503,1093444824219;	325,0;	0,0;	0,0
503,1865234375;	342,25;	0,0;	0,0
503,2636413574219;	326,25;	0,0;	0,0
503,34075927734375;	344,25;	0,0;	0,0
503,41790771484375;	376,25;	0,0;	0,0
503,4949951171875;	369,5;	0,0;	0,0
503,57208251953125;	332,0;	0,0;	0,0
503,6492004394531;	373,0;	0,0;	0,0
503,72625732421875;	399,0;	0,0;	0,0
503,8033142089844;	460,0;	0,0;	0,0
503,88037109375;	587,25;	0,0;	0,0
503,9573974609375;	794,5;	0,0;	0,0
504,034423828125;	788,5;	0,0;	0,0
504,1114196777344;	487,5;	0,0;	0,0
504,18841552734375;	399,0;	0,0;	0,0
504,2654113769531;	356,0;	0,0;	0,0
504,3423767089844;	348,25;	0,0;	0,0
504,4193115234375;	361,25;	0,0;	0,0
504,49627685546875;	332,75;	0,0;	0,0
504,5732421875;	340,5;	0,0;	0,0
504,650146484375;	400,0;	0,0;	0,0
504,7270202636719;	498,5;	0,0;	0,0
504,8039245605469;	766,0;	0,0;	0,0
504,880859375;	743,25;	0,0;	0,0
504,95770263671875;	531,25;	0,0;	0,0
505,0345458984375;	570,5;	0,0;	0,0
505,1114196777344;	374,75;	0,0;	0,0
505,1882629394531;	347,0;	0,0;	0,0
505,2650451660156;	373,5;	0,0;	0,0
505,34185791015625;	338,5;	0,0;	0,0
505,4186706542969;	333,25;	0,0;	0,0
505,4954528808594;	345,75;	0,0;	0,0
505,57220458984375;	323,5;	0,0;	0,0
505,6489562988281;	345,25;	0,0;	0,0
505,72576904296875;	326,25;	0,0;	0,0
505,802490234375;	328,0;	0,0;	0,0
505,87921142578125;	337,25;	0,0;	0,0
505,9559020996094;	321,25;	0,0;	0,0
506,0326232910156;	313,0;	0,0;	0,0
506,1092834472656;	366,5;	0,0;	0,0
506,1859436035156;	378,0;	0,0;	0,0
506,2626037597656;	480,0;	0,0;	0,0
506,3392639160156;	569,5;	0,0;	0,0
506,4159240722656;	465,5;	0,0;	0,0
506,4925231933594;	385,25;	0,0;	0,0
506,56915283203125;	419,5;	0,0;	0,0
506,645751953125;	454,0;	0,0;	0,0
506,72235107421875;	633,25;	0,0;	0,0
506,7989196777344;	507,25;	0,0;	0,0
506,8754577636719;	372,5;	0,0;	0,0
506,9520263671875;	380,75;	0,0;	0,0
507,028564453125;	409,5;	0,0;	0,0
507,1050720214844;	467,5;	0,0;	0,0
507,1816101074219;	473,5;	0,0;	0,0
507,2580871582031;	591,75;	0,0;	0,0
507,3345642089844;	637,75;	0,0;	0,0
507,4110412597656;	493,25;	0,0;	0,0
507,487548828125;	440,25;	0,0;	0,0
507,56396484375;	392,75;	0,0;	0,0
507,640380859375;	435,75;	0,0;	0,0
507,71685791015625;	571,75;	0,0;	0,0
507,7932434082031;	629,0;	0,0;	0,0
507,86962890625;	462,5;	0,0;	0,0
507,9460144042969;	344,75;	0,0;	0,0
508,02239990234375;	335,75;	0,0;	0,0
508,0987548828125;	393,25;	0,0;	0,0
508,17510986328125;	480,5;	0,0;	0,0
508,2514343261719;	404,75;	0,0;	0,0
508,3277893066406;	307,25;	0,0;	0,0
508,4040832519531;	325,75;	0,0;	0,0
508,4803771972656;	339,0;	0,0;	0,0
508,556640625;	324,25;	0,0;	0,0
508,6329650878906;	331,25;	0,0;	0,0
508,7091979980469;	363,0;	0,0;	0,0
508,78546142578125;	321,75;	0,0;	0,0
508,8616943359375;	384,5;	0,0;	0,0
508,93792724609375;	416,5;	0,0;	0,0
509,0141296386719;	370,5;	0,0;	0,0
509,09033203125;	352,0;	0,0;	0,0
509,1665344238281;	325,25;	0,0;	0,0
509,24267578125;	337,75;	0,0;	0,0
509,31884765625;	334,25;	0,0;	0,0
509,3949890136719;	339,25;	0,0;	0,0
509,4711608886719;	419,0;	0,0;	0,0
509,5472717285156;	489,5;	0,0;	0,0
509,62335205078125;	491,75;	0,0;	0,0
509,699462890625;	588,0;	0,0;	0,0
509,77557373046875;	534,0;	0,0;	0,0
509,85162353515625;	359,5;	0,0;	0,0
509,92767333984375;	349,75;	0,0;	0,0
510,00372314453125;	346,75;	0,0;	0,0
510,0798034667969;	337,5;	0,0;	0,0
510,15582275390625;	328,0;	0,0;	0,0
510,2318115234375;	345,75;	0,0;	0,0
510,3078308105469;	382,25;	0,0;	0,0
510,3837890625;	483,75;	0,0;	0,0
510,45977783203125;	429,25;	0,0;	0,0
510,5357360839844;	513,0;	0,0;	0,0
510,6116943359375;	639,25;	0,0;	0,0
510,6876220703125;	450,5;	0,0;	0,0
510,7635498046875;	411,25;	0,0;	0,0
510,8394470214844;	525,0;	0,0;	0,0
510,9153747558594;	565,5;	0,0;	0,0
510,9912414550781;	368,5;	0,0;	0,0
511,0671081542969;	319,75;	0,0;	0,0
511,1429443359375;	324,0;	0,0;	0,0
511,2188415527344;	328,0;	0,0;	0,0
511,2946472167969;	352,25;	0,0;	0,0
511,3704833984375;	341,75;	0,0;	0,0
511,4462890625;	329,25;	0,0;	0,0
511,5220947265625;	325,5;	0,0;	0,0
511,59783935546875;	329,0;	0,0;	0,0
511,6736145019531;	345,0;	0,0;	0,0
511,7494201660156;	339,75;	0,0;	0,0
511,82513427734375;	339,0;	0,0;	0,0
511,90087890625;	356,75;	0,0;	0,0
511,97662353515625;	379,0;	0,0;	0,0
512,0523071289062;	419,0;	0,0;	0,0
512,1280517578125;	423,25;	0,0;	0,0
512,2036743164062;	508,5;	0,0;	0,0
512,2793579101562;	532,25;	0,0;	0,0
512,3550415039062;	559,0;	0,0;	0,0
512,4306640625;	540,5;	0,0;	0,0
512,5062866210938;	463,5;	0,0;	0,0
512,5819702148438;	465,75;	0,0;	0,0
512,657470703125;	397,0;	0,0;	0,0
512,7330932617188;	337,0;	0,0;	0,0
512,8087158203125;	380,25;	0,0;	0,0
512,88427734375;	414,25;	0,0;	0,0
512,9598999023438;	465,25;	0,0;	0,0
513,035400390625;	524,0;	0,0;	0,0
513,1109008789062;	632,5;	0,0;	0,0
513,1864624023438;	842,0;	0,0;	0,0
513,2619018554688;	690,0;	0,0;	0,0
513,33740234375;	470,5;	0,0;	0,0
513,4129638671875;	411,5;	0,0;	0,0
513,4884033203125;	428,75;	0,0;	0,0
513,5638427734375;	584,0;	0,0;	0,0
513,6392822265625;	670,0;	0,0;	0,0
513,7147216796875;	992,75;	0,0;	0,0
513,7901000976562;	1805,25;	0,0;	0,0
513,8655395507812;	1083,25;	0,0;	0,0
513,94091796875;	498,5;	0,0;	0,0
514,0162963867188;	522,5;	0,0;	0,0
514,0916748046875;	576,75;	0,0;	0,0
514,1669921875;	565,0;	0,0;	0,0
514,2423706054688;	387,0;	0,0;	0,0
514,3176879882812;	364,25;	0,0;	0,0
514,3930053710938;	364,25;	0,0;	0,0
514,4683837890625;	356,25;	0,0;	0,0
514,5435791015625;	386,5;	0,0;	0,0
514,618896484375;	476,5;	0,0;	0,0
514,694091796875;	489,5;	0,0;	0,0
514,7694091796875;	462,0;	0,0;	0,0
514,8446655273438;	425,5;	0,0;	0,0
514,9198608398438;	454,75;	0,0;	0,0
514,9950561523438;	442,75;	0,0;	0,0
515,0703125;	432,25;	0,0;	0,0
515,1454467773438;	443,0;	0,0;	0,0
515,220703125;	407,25;	0,0;	0,0
515,2957763671875;	405,25;	0,0;	0,0
515,3709716796875;	362,75;	0,0;	0,0
515,4461059570312;	371,5;	0,0;	0,0
515,521240234375;	376,5;	0,0;	0,0
515,5963745117188;	366,5;	0,0;	0,0
515,6714477539062;	380,0;	0,0;	0,0
515,7465209960938;	416,25;	0,0;	0,0
515,8215942382812;	395,25;	0,0;	0,0
515,896728515625;	395,25;	0,0;	0,0
515,9717407226562;	454,25;	0,0;	0,0
516,0467529296875;	613,5;	0,0;	0,0
516,121826171875;	703,5;	0,0;	0,0
516,1968383789062;	540,0;	0,0;	0,0
516,2717895507812;	486,0;	0,0;	0,0
516,3468017578125;	545,0;	0,0;	0,0
516,4217529296875;	694,25;	0,0;	0,0
516,4967651367188;	1237,75;	0,0;	0,0
516,5716552734375;	2770,5;	0,0;	0,0
516,6466674804688;	2444,0;	0,0;	0,0
516,7215576171875;	994,0;	0,0;	0,0
516,7964477539062;	747,0;	0,0;	0,0
516,871337890625;	525,25;	0,0;	0,0
516,9461669921875;	853,75;	0,0;	0,0
517,0211181640625;	1124,0;	0,0;	0,0
517,0960083007812;	757,0;	0,0;	0,0
517,1707763671875;	490,0;	0,0;	0,0
517,24560546875;	374,5;	0,0;	0,0
517,3204345703125;	331,25;	0,0;	0,0
517,3952026367188;	360,0;	0,0;	0,0
517,4700927734375;	358,0;	0,0;	0,0
517,5448608398438;	316,5;	0,0;	0,0
517,61962890625;	328,75;	0,0;	0,0
517,6943969726562;	344,0;	0,0;	0,0
517,7691040039062;	364,0;	0,0;	0,0
517,8438110351562;	357,5;	0,0;	0,0
517,9185791015625;	353,25;	0,0;	0,0
517,9932250976562;	398,25;	0,0;	0,0
518,0679321289062;	420,5;	0,0;	0,0
518,1426391601562;	559,0;	0,0;	0,0
518,21728515625;	738,25;	0,0;	0,0
518,2919311523438;	545,5;	0,0;	0,0
518,3665771484375;	383,0;	0,0;	0,0
518,4412231445312;	360,25;	0,0;	0,0
518,515869140625;	341,5;	0,0;	0,0
518,5903930664062;	409,0;	0,0;	0,0
518,6650390625;	434,75;	0,0;	0,0
518,7396240234375;	475,5;	0,0;	0,0
518,8141479492188;	460,0;	0,0;	0,0
518,8887329101562;	573,25;	0,0;	0,0
518,9631958007812;	1102,5;	0,0;	0,0
519,0377807617188;	1551,75;	0,0;	0,0
519,1123046875;	1351,25;	0,0;	0,0
519,186767578125;	695,0;	0,0;	0,0
519,2612915039062;	583,0;	0,0;	0,0
519,3358154296875;	824,75;	0,0;	0,0
519,41015625;	750,25;	0,0;	0,0
519,4846801757812;	485,5;	0,0;	0,0
519,5591430664062;	396,5;	0,0;	0,0
519,633544921875;	420,5;	0,0;	0,0
519,7080078125;	442,75;	0,0;	0,0
519,7822875976562;	413,5;	0,0;	0,0
519,856689453125;	366,75;	0,0;	0,0
519,93115234375;	354,75;	0,0;	0,0
520,0054321289062;	458,75;	0,0;	0,0
520,0797729492188;	576,75;	0,0;	0,0
520,1541748046875;	473,75;	0,0;	0,0
520,2283935546875;	412,75;	0,0;	0,0
520,302734375;	473,25;	0,0;	0,0
520,3770751953125;	441,75;	0,0;	0,0
520,4512939453125;	487,75;	0,0;	0,0
520,525634765625;	459,25;	0,0;	0,0
520,5997924804688;	450,75;	0,0;	0,0
520,674072265625;	689,0;	0,0;	0,0
520,7483520507812;	640,75;	0,0;	0,0
520,822509765625;	408,25;	0,0;	0,0
520,8967895507812;	340,0;	0,0;	0,0
520,970947265625;	366,25;	0,0;	0,0
521,0451049804688;	330,5;	0,0;	0,0
521,1192626953125;	349,25;	0,0;	0,0
521,1934204101562;	356,5;	0,0;	0,0
521,267578125;	434,0;	0,0;	0,0
521,3417358398438;	624,5;	0,0;	0,0
521,415771484375;	676,75;	0,0;	0,0
521,4898681640625;	760,5;	0,0;	0,0
521,5640258789062;	648,75;	0,0;	0,0
521,6380615234375;	571,5;	0,0;	0,0
521,712158203125;	453,75;	0,0;	0,0
521,7862548828125;	372,75;	0,0;	0,0
521,8602294921875;	352,75;	0,0;	0,0
521,9342651367188;	354,25;	0,0;	0,0
522,0082397460938;	346,75;	0,0;	0,0
522,0822143554688;	367,75;	0,0;	0,0
522,1563110351562;	353,75;	0,0;	0,0
522,230224609375;	372,75;	0,0;	0,0
522,30419921875;	413,0;	0,0;	0,0
522,3781127929688;	531,25;	0,0;	0,0
522,4520874023438;	1017,25;	0,0;	0,0
522,5260009765625;	2433,75;	0,0;	0,0
522,599853515625;	2539,25;	0,0;	0,0
522,6737670898438;	846,0;	0,0;	0,0
522,7476806640625;	490,5;	0,0;	0,0
522,821533203125;	557,0;	0,0;	0,0
522,8953857421875;	518,25;	0,0;	0,0
522,96923828125;	547,0;	0,0;	0,0
523,0430297851562;	915,5;	0,0;	0,0
523,1168823242188;	2275,25;	0,0;	0,0
523,190673828125;	2177,5;	0,0;	0,0
523,2644653320312;	777,5;	0,0;	0,0
523,3382568359375;	461,5;	0,0;	0,0
523,4119873046875;	422,75;	0,0;	0,0
523,4857788085938;	382,5;	0,0;	0,0
523,5595703125;	342,25;	0,0;	0,0
523,6332397460938;	356,75;	0,0;	0,0
523,7069702148438;	338,75;	0,0;	0,0
523,7807006835938;	334,25;	0,0;	0,0
523,8543701171875;	375,75;	0,0;	0,0
523,927978515625;	327,0;	0,0;	0,0
524,0016479492188;	401,25;	0,0;	0,0
524,0753173828125;	468,25;	0,0;	0,0
524,14892578125;	441,0;	0,0;	0,0
524,2225341796875;	366,75;	0,0;	0,0
524,2962036132812;	377,5;	0,0;	0,0
524,3698120117188;	335,5;	0,0;	0,0
524,443359375;	345,5;	0,0;	0,0
524,5169067382812;	359,5;	0,0;	0,0
524,5905151367188;	337,25;	0,0;	0,0
524,6640014648438;	362,25;	0,0;	0,0
524,7376098632812;	361,75;	0,0;	0,0
524,8110961914062;	353,25;	0,0;	0,0
524,8845825195312;	457,75;	0,0;	0,0
524,9580688476562;	451,0;	0,0;	0,0
525,0315551757812;	360,5;	0,0;	0,0
525,10498046875;	372,75;	0,0;	0,0
525,178466796875;	374,0;	0,0;	0,0
525,2518920898438;	346,75;	0,0;	0,0
525,3253173828125;	381,5;	0,0;	0,0
525,3987426757812;	371,75;	0,0;	0,0
525,47216796875;	356,75;	0,0;	0,0
525,5455322265625;	351,0;	0,0;	0,0
525,618896484375;	347,75;	0,0;	0,0
525,6922607421875;	354,25;	0,0;	0,0
525,765625;	348,75;	0,0;	0,0
525,8389892578125;	338,25;	0,0;	0,0
525,9122924804688;	405,0;	0,0;	0,0
525,9856567382812;	526,25;	0,0;	0,0
526,0588989257812;	619,5;	0,0;	0,0
526,1322021484375;	630,75;	0,0;	0,0
526,2054443359375;	692,0;	0,0;	0,0
526,2786865234375;	690,0;	0,0;	0,0
526,3519897460938;	787,5;	0,0;	0,0
526,4251098632812;	1140,75;	0,0;	0,0
526,4984130859375;	1524,25;	0,0;	0,0
526,5715942382812;	1182,0;	0,0;	0,0
526,644775390625;	961,0;	0,0;	0,0
526,718017578125;	2138,75;	0,0;	0,0
526,7911376953125;	5251,75;	0,0;	0,0
526,8642578125;	4777,5;	0,0;	0,0
526,9374389648438;	1907,5;	0,0;	0,0
527,0105590820312;	574,0;	0,0;	0,0
527,0836791992188;	439,75;	0,0;	0,0
527,15673828125;	556,25;	0,0;	0,0
527,2298583984375;	518,75;	0,0;	0,0
527,3029174804688;	421,25;	0,0;	0,0
527,3760375976562;	417,0;	0,0;	0,0
527,4490356445312;	393,25;	0,0;	0,0
527,5220336914062;	359,5;	0,0;	0,0
527,5950927734375;	335,25;	0,0;	0,0
527,6680908203125;	340,0;	0,0;	0,0
527,7411499023438;	367,0;	0,0;	0,0
527,8140869140625;	400,5;	0,0;	0,0
527,8870849609375;	411,25;	0,0;	0,0
527,9600219726562;	508,5;	0,0;	0,0
528,032958984375;	712,0;	0,0;	0,0
528,1058959960938;	690,5;	0,0;	0,0
528,1788330078125;	871,25;	0,0;	0,0
528,251708984375;	886,0;	0,0;	0,0
528,3245849609375;	544,25;	0,0;	0,0
528,3974609375;	381,0;	0,0;	0,0
528,4703369140625;	361,25;	0,0;	0,0
528,543212890625;	337,5;	0,0;	0,0
528,6160278320312;	328,0;	0,0;	0,0
528,6888427734375;	360,5;	0,0;	0,0
528,7616577148438;	335,0;	0,0;	0,0
528,8344116210938;	339,0;	0,0;	0,0
528,9072265625;	348,25;	0,0;	0,0
528,97998046875;	340,5;	0,0;	0,0
529,0527954101562;	329,25;	0,0;	0,0
529,12548828125;	357,0;	0,0;	0,0
529,1982421875;	343,5;	0,0;	0,0
529,27099609375;	357,5;	0,0;	0,0
529,34375;	375,25;	0,0;	0,0
529,4163208007812;	386,0;	0,0;	0,0
529,4890747070312;	344,5;	0,0;	0,0
529,561767578125;	353,25;	0,0;	0,0
529,6343383789062;	360,25;	0,0;	0,0
529,70703125;	331,0;	0,0;	0,0
529,7796020507812;	350,0;	0,0;	0,0
529,8522338867188;	353,75;	0,0;	0,0
529,9249267578125;	368,0;	0,0;	0,0
529,9974365234375;	446,5;	0,0;	0,0
530,070068359375;	643,5;	0,0;	0,0
530,142578125;	563,0;	0,0;	0,0
530,2151489257812;	386,75;	0,0;	0,0
530,2876586914062;	364,0;	0,0;	0,0
530,3602294921875;	331,25;	0,0;	0,0
530,4326782226562;	331,75;	0,0;	0,0
530,5052490234375;	383,0;	0,0;	0,0
530,57763671875;	412,25;	0,0;	0,0
530,650146484375;	381,5;	0,0;	0,0
530,72265625;	362,5;	0,0;	0,0
530,7950439453125;	349,75;	0,0;	0,0
530,8674926757812;	352,0;	0,0;	0,0
530,93994140625;	357,5;	0,0;	0,0
531,0122680664062;	350,25;	0,0;	0,0
531,084716796875;	333,75;	0,0;	0,0
531,1571044921875;	367,75;	0,0;	0,0
531,2294311523438;	348,5;	0,0;	0,0
531,3018188476562;	359,25;	0,0;	0,0
531,3740844726562;	371,5;	0,0;	0,0
531,4464111328125;	422,25;	0,0;	0,0
531,518798828125;	434,75;	0,0;	0,0
531,591064453125;	364,25;	0,0;	0,0
531,6633911132812;	351,5;	0,0;	0,0
531,7356567382812;	375,75;	0,0;	0,0
531,807861328125;	338,5;	0,0;	0,0
531,880126953125;	372,25;	0,0;	0,0
531,9523315429688;	395,5;	0,0;	0,0
532,0245361328125;	388,75;	0,0;	0,0
532,0968017578125;	487,75;	0,0;	0,0
532,1689453125;	726,75;	0,0;	0,0
532,2411499023438;	1579,5;	0,0;	0,0
532,3133544921875;	1546,25;	0,0;	0,0
532,3854370117188;	731,25;	0,0;	0,0
532,4576416015625;	597,25;	0,0;	0,0
532,5297241210938;	989,75;	0,0;	0,0
532,6018676757812;	2677,25;	0,0;	0,0
532,6739501953125;	4051,0;	0,0;	0,0
532,7459716796875;	1940,5;	0,0;	0,0
532,818115234375;	549,0;	0,0;	0,0
532,8901977539062;	407,25;	0,0;	0,0
532,9622192382812;	392,5;	0,0;	0,0
533,0342407226562;	367,0;	0,0;	0,0
533,1062622070312;	426,25;	0,0;	0,0
533,1782836914062;	427,0;	0,0;	0,0
533,2503051757812;	376,0;	0,0;	0,0
533,3222045898438;	359,75;	0,0;	0,0
533,3942260742188;	363,0;	0,0;	0,0
533,4661865234375;	359,0;	0,0;	0,0
533,5380859375;	368,5;	0,0;	0,0
533,6100463867188;	371,5;	0,0;	0,0
533,6819458007812;	405,25;	0,0;	0,0
533,7538452148438;	483,5;	0,0;	0,0
533,82568359375;	768,5;	0,0;	0,0
533,8976440429688;	984,25;	0,0;	0,0
533,9694213867188;	903,25;	0,0;	0,0
534,0413208007812;	545,0;	0,0;	0,0
534,1130981445312;	360,25;	0,0;	0,0
534,1849975585938;	402,75;	0,0;	0,0
534,2567749023438;	370,5;	0,0;	0,0
534,3284912109375;	384,5;	0,0;	0,0
534,4003295898438;	375,5;	0,0;	0,0
534,4721069335938;	384,5;	0,0;	0,0
534,5438842773438;	348,75;	0,0;	0,0
534,6156005859375;	376,75;	0,0;	0,0
534,6873779296875;	410,75;	0,0;	0,0
534,759033203125;	434,25;	0,0;	0,0
534,830810546875;	535,75;	0,0;	0,0
534,9024047851562;	390,25;	0,0;	0,0
534,97412109375;	365,75;	0,0;	0,0
535,0457763671875;	380,75;	0,0;	0,0
535,1173706054688;	384,5;	0,0;	0,0
535,1890869140625;	429,25;	0,0;	0,0
535,2607421875;	391,5;	0,0;	0,0
535,332275390625;	364,75;	0,0;	0,0
535,4038696289062;	348,75;	0,0;	0,0
535,4754638671875;	366,75;	0,0;	0,0
535,5469970703125;	345,0;	0,0;	0,0
535,6185913085938;	357,25;	0,0;	0,0
535,6901245117188;	383,75;	0,0;	0,0
535,7616577148438;	367,25;	0,0;	0,0
535,8331909179688;	363,25;	0,0;	0,0
535,9046630859375;	408,0;	0,0;	0,0
535,9761962890625;	386,5;	0,0;	0,0
536,047607421875;	455,75;	0,0;	0,0
536,1190185546875;	495,5;	0,0;	0,0
536,1905517578125;	526,5;	0,0;	0,0
536,2619018554688;	677,5;	0,0;	0,0
536,3333740234375;	828,25;	0,0;	0,0
536,4048461914062;	746,75;	0,0;	0,0
536,4761352539062;	657,25;	0,0;	0,0
536,5475463867188;	836,25;	0,0;	0,0
536,6189575195312;	914,75;	0,0;	0,0
536,6902465820312;	748,0;	0,0;	0,0
536,7615966796875;	848,25;	0,0;	0,0
536,8329467773438;	1192,5;	0,0;	0,0
536,9042358398438;	1552,5;	0,0;	0,0
536,9755859375;	2741,25;	0,0;	0,0
537,046875;	2405,5;	0,0;	0,0
537,1181030273438;	789,0;	0,0;	0,0
537,1893920898438;	475,25;	0,0;	0,0
537,2606201171875;	409,75;	0,0;	0,0
537,3319091796875;	376,5;	0,0;	0,0
537,403076171875;	381,75;	0,0;	0,0
537,4743041992188;	383,0;	0,0;	0,0
537,5454711914062;	380,0;	0,0;	0,0
537,6165771484375;	398,25;	0,0;	0,0
537,6878051757812;	401,25;	0,0;	0,0
537,7589721679688;	427,75;	0,0;	0,0
537,830078125;	468,5;	0,0;	0,0
537,9012451171875;	483,0;	0,0;	0,0
537,9723510742188;	469,5;	0,0;	0,0
538,0433959960938;	626,0;	0,0;	0,0
538,1145629882812;	1017,75;	0,0;	0,0
538,1856079101562;	1371,75;	0,0;	0,0
538,2566528320312;	957,5;	0,0;	0,0
538,3276977539062;	523,75;	0,0;	0,0
538,398681640625;	441,5;	0,0;	0,0
538,4697265625;	420,25;	0,0;	0,0
538,5408325195312;	429,75;	0,0;	0,0
538,6117553710938;	372,75;	0,0;	0,0
538,6827392578125;	428,25;	0,0;	0,0
538,753662109375;	448,75;	0,0;	0,0
538,8246459960938;	462,5;	0,0;	0,0
538,8956298828125;	450,25;	0,0;	0,0
538,9664916992188;	449,25;	0,0;	0,0
539,0374145507812;	454,0;	0,0;	0,0
539,1083374023438;	596,25;	0,0;	0,0
539,1791381835938;	724,25;	0,0;	0,0
539,2500610351562;	574,5;	0,0;	0,0
539,3209228515625;	479,0;	0,0;	0,0
539,3917236328125;	502,0;	0,0;	0,0
539,4625854492188;	770,5;	0,0;	0,0
539,5333862304688;	1612,5;	0,0;	0,0
539,6041870117188;	1597,25;	0,0;	0,0
539,6749877929688;	742,0;	0,0;	0,0
539,7457275390625;	493,5;	0,0;	0,0
539,8165283203125;	504,25;	0,0;	0,0
539,8872680664062;	580,75;	0,0;	0,0
539,9580078125;	578,5;	0,0;	0,0
540,0286865234375;	586,0;	0,0;	0,0
540,0994873046875;	636,75;	0,0;	0,0
540,170166015625;	886,5;	0,0;	0,0
540,2408447265625;	1420,75;	0,0;	0,0
540,3114624023438;	1438,75;	0,0;	0,0
540,3821411132812;	1790,5;	0,0;	0,0
540,4528198242188;	2042,75;	0,0;	0,0
540,5233764648438;	1013,25;	0,0;	0,0
540,5940551757812;	467,25;	0,0;	0,0
540,6646728515625;	494,75;	0,0;	0,0
540,7351684570312;	469,75;	0,0;	0,0
540,8057861328125;	585,25;	0,0;	0,0
540,8763427734375;	749,5;	0,0;	0,0
540,9468383789062;	874,5;	0,0;	0,0
541,0174560546875;	668,75;	0,0;	0,0
541,087890625;	523,25;	0,0;	0,0
541,158447265625;	575,5;	0,0;	0,0
541,2289428710938;	688,25;	0,0;	0,0
541,2994384765625;	931,75;	0,0;	0,0
541,369873046875;	1184,75;	0,0;	0,0
541,4403686523438;	866,0;	0,0;	0,0
541,5107421875;	535,75;	0,0;	0,0
541,5811767578125;	436,5;	0,0;	0,0
541,6515502929688;	429,75;	0,0;	0,0
541,7219848632812;	424,75;	0,0;	0,0
541,7923583984375;	417,0;	0,0;	0,0
541,8627319335938;	464,75;	0,0;	0,0
541,93310546875;	456,75;	0,0;	0,0
542,0034790039062;	510,75;	0,0;	0,0
542,07373046875;	643,25;	0,0;	0,0
542,1441040039062;	880,0;	0,0;	0,0
542,21435546875;	1308,75;	0,0;	0,0
542,28466796875;	1279,25;	0,0;	0,0
542,3549194335938;	772,75;	0,0;	0,0
542,4251708984375;	501,5;	0,0;	0,0
542,4954833984375;	502,5;	0,0;	0,0
542,5657348632812;	447,25;	0,0;	0,0
542,6358642578125;	532,0;	0,0;	0,0
542,7061157226562;	760,75;	0,0;	0,0
542,7763671875;	1721,25;	0,0;	0,0
542,846435546875;	2059,25;	0,0;	0,0
542,9166870117188;	1016,5;	0,0;	0,0
542,98681640625;	420,5;	0,0;	0,0
543,0569458007812;	419,75;	0,0;	0,0
543,1271362304688;	468,5;	0,0;	0,0
543,1971435546875;	627,0;	0,0;	0,0
543,267333984375;	1171,75;	0,0;	0,0
543,33740234375;	1268,25;	0,0;	0,0
543,407470703125;	598,75;	0,0;	0,0
543,4774780273438;	408,75;	0,0;	0,0
543,547607421875;	360,0;	0,0;	0,0
543,6175537109375;	377,25;	0,0;	0,0
543,6876220703125;	373,0;	0,0;	0,0
543,7576293945312;	378,75;	0,0;	0,0
543,8275756835938;	357,75;	0,0;	0,0
543,8975830078125;	394,0;	0,0;	0,0
543,9674682617188;	405,5;	0,0;	0,0
544,0374755859375;	414,0;	0,0;	0,0
544,107421875;	401,25;	0,0;	0,0
544,1773071289062;	468,25;	0,0;	0,0
544,2472534179688;	508,5;	0,0;	0,0
544,317138671875;	665,75;	0,0;	0,0
544,386962890625;	758,5;	0,0;	0,0
544,4568481445312;	995,5;	0,0;	0,0
544,5266723632812;	1972,0;	0,0;	0,0
544,5965576171875;	1559,25;	0,0;	0,0
544,6663818359375;	604,75;	0,0;	0,0
544,7361450195312;	430,25;	0,0;	0,0
544,8060302734375;	394,75;	0,0;	0,0
544,8757934570312;	384,0;	0,0;	0,0
544,945556640625;	430,0;	0,0;	0,0
545,0153198242188;	403,75;	0,0;	0,0
545,0850830078125;	421,5;	0,0;	0,0
545,15478515625;	472,25;	0,0;	0,0
545,2244873046875;	540,0;	0,0;	0,0
545,294189453125;	733,0;	0,0;	0,0
545,3639526367188;	1438,25;	0,0;	0,0
545,43359375;	1712,75;	0,0;	0,0
545,5032348632812;	896,5;	0,0;	0,0
545,5729370117188;	455,0;	0,0;	0,0
545,6424560546875;	410,5;	0,0;	0,0
545,712158203125;	418,0;	0,0;	0,0
545,78173828125;	399,25;	0,0;	0,0
545,851318359375;	400,25;	0,0;	0,0
545,9208984375;	419,0;	0,0;	0,0
545,9905395507812;	495,75;	0,0;	0,0
546,0599975585938;	553,0;	0,0;	0,0
546,1295776367188;	699,0;	0,0;	0,0
546,1990966796875;	677,5;	0,0;	0,0
546,2686157226562;	554,5;	0,0;	0,0
546,338134765625;	444,25;	0,0;	0,0
546,4075317382812;	454,0;	0,0;	0,0
546,4771118164062;	459,5;	0,0;	0,0
546,5465698242188;	446,75;	0,0;	0,0
546,615966796875;	431,25;	0,0;	0,0
546,6853637695312;	400,5;	0,0;	0,0
546,7548217773438;	370,0;	0,0;	0,0
546,82421875;	413,25;	0,0;	0,0
546,8936157226562;	400,75;	0,0;	0,0
546,9630126953125;	436,0;	0,0;	0,0
547,0323486328125;	399,25;	0,0;	0,0
547,1016845703125;	435,5;	0,0;	0,0
547,1710205078125;	443,5;	0,0;	0,0
547,2403564453125;	522,25;	0,0;	0,0
547,3096923828125;	454,5;	0,0;	0,0
547,37890625;	476,0;	0,0;	0,0
547,4482421875;	546,75;	0,0;	0,0
547,5175170898438;	680,25;	0,0;	0,0
547,586669921875;	591,5;	0,0;	0,0
547,6559448242188;	430,75;	0,0;	0,0
547,7252197265625;	413,5;	0,0;	0,0
547,7943725585938;	416,25;	0,0;	0,0
547,8636474609375;	445,5;	0,0;	0,0
547,9327392578125;	455,25;	0,0;	0,0
548,001953125;	480,75;	0,0;	0,0
548,0711059570312;	438,25;	0,0;	0,0
548,1401977539062;	421,5;	0,0;	0,0
548,2093505859375;	446,75;	0,0;	0,0
548,2784423828125;	437,0;	0,0;	0,0
548,3475341796875;	413,75;	0,0;	0,0
548,4166259765625;	417,5;	0,0;	0,0
548,4857177734375;	436,75;	0,0;	0,0
548,5547485351562;	435,75;	0,0;	0,0
548,6238403320312;	489,5;	0,0;	0,0
548,6928100585938;	496,25;	0,0;	0,0
548,7619018554688;	441,75;	0,0;	0,0
548,8309326171875;	433,75;	0,0;	0,0
548,8998413085938;	379,25;	0,0;	0,0
548,9688720703125;	417,25;	0,0;	0,0
549,0377807617188;	422,0;	0,0;	0,0
549,1067504882812;	432,25;	0,0;	0,0
549,1756591796875;	446,75;	0,0;	0,0
549,2445678710938;	440,0;	0,0;	0,0
549,3135375976562;	423,0;	0,0;	0,0
549,3824462890625;	416,5;	0,0;	0,0
549,4512939453125;	426,0;	0,0;	0,0
549,5201416015625;	467,25;	0,0;	0,0
549,5890502929688;	632,0;	0,0;	0,0
549,6578369140625;	558,0;	0,0;	0,0
549,7266845703125;	460,75;	0,0;	0,0
549,7954711914062;	431,5;	0,0;	0,0
549,8642578125;	475,5;	0,0;	0,0
549,93310546875;	503,5;	0,0;	0,0
550,0017700195312;	605,0;	0,0;	0,0
550,070556640625;	551,75;	0,0;	0,0
550,1393432617188;	432,75;	0,0;	0,0
550,2080078125;	470,25;	0,0;	0,0
550,2767944335938;	448,75;	0,0;	0,0
550,345458984375;	482,5;	0,0;	0,0
550,4141235351562;	500,75;	0,0;	0,0
550,4828491210938;	669,25;	0,0;	0,0
550,5513916015625;	731,0;	0,0;	0,0
550,6201171875;	558,75;	0,0;	0,0
550,688720703125;	468,25;	0,0;	0,0
550,75732421875;	449,75;	0,0;	0,0
550,8259887695312;	419,5;	0,0;	0,0
550,89453125;	474,5;	0,0;	0,0
550,9630737304688;	520,75;	0,0;	0,0
551,0316772460938;	522,5;	0,0;	0,0
551,1002197265625;	538,25;	0,0;	0,0
551,1687622070312;	542,75;	0,0;	0,0
551,2373046875;	498,25;	0,0;	0,0
551,3057250976562;	464,25;	0,0;	0,0
551,374267578125;	481,25;	0,0;	0,0
551,4427490234375;	505,5;	0,0;	0,0
551,5111694335938;	438,25;	0,0;	0,0
551,5796508789062;	480,5;	0,0;	0,0
551,6480102539062;	449,5;	0,0;	0,0
551,7164916992188;	449,5;	0,0;	0,0
551,7849731445312;	460,75;	0,0;	0,0
551,8533325195312;	446,5;	0,0;	0,0
551,9216918945312;	491,25;	0,0;	0,0
551,9901123046875;	475,25;	0,0;	0,0
552,0584106445312;	506,25;	0,0;	0,0
552,1267700195312;	445,75;	0,0;	0,0
552,195068359375;	487,75;	0,0;	0,0
552,2633666992188;	457,0;	0,0;	0,0
552,3316650390625;	478,5;	0,0;	0,0
552,39990234375;	503,0;	0,0;	0,0
552,46826171875;	464,75;	0,0;	0,0
552,5364990234375;	457,75;	0,0;	0,0
552,6046752929688;	456,0;	0,0;	0,0
552,6729736328125;	460,75;	0,0;	0,0
552,7412109375;	489,0;	0,0;	0,0
552,809326171875;	491,75;	0,0;	0,0
552,8775634765625;	491,25;	0,0;	0,0
552,9457397460938;	484,0;	0,0;	0,0
553,0138549804688;	491,75;	0,0;	0,0
553,08203125;	513,0;	0,0;	0,0
553,150146484375;	566,75;	0,0;	0,0
553,2182006835938;	534,0;	0,0;	0,0
553,286376953125;	539,5;	0,0;	0,0
553,3544311523438;	763,75;	0,0;	0,0
553,4225463867188;	831,0;	0,0;	0,0
553,4906005859375;	631,25;	0,0;	0,0
553,55859375;	515,0;	0,0;	0,0
553,626708984375;	544,25;	0,0;	0,0
553,6947021484375;	520,25;	0,0;	0,0
553,7626953125;	505,5;	0,0;	0,0
553,8306884765625;	504,5;	0,0;	0,0
553,8986206054688;	505,0;	0,0;	0,0
553,9666137695312;	517,0;	0,0;	0,0
554,0346069335938;	540,5;	0,0;	0,0
554,1024780273438;	544,75;	0,0;	0,0
554,1704711914062;	575,75;	0,0;	0,0
554,2384033203125;	569,0;	0,0;	0,0
554,3062133789062;	548,0;	0,0;	0,0
554,3740844726562;	519,25;	0,0;	0,0
554,4419555664062;	521,75;	0,0;	0,0
554,509765625;	578,75;	0,0;	0,0
554,57763671875;	491,5;	0,0;	0,0
554,6454467773438;	511,0;	0,0;	0,0
554,7133178710938;	529,0;	0,0;	0,0
554,7810668945312;	498,25;	0,0;	0,0
554,8488159179688;	480,75;	0,0;	0,0
554,9166259765625;	524,75;	0,0;	0,0
554,9843139648438;	493,0;	0,0;	0,0
555,0521240234375;	490,0;	0,0;	0,0
555,119873046875;	489,5;	0,0;	0,0
555,1875;	530,75;	0,0;	0,0
555,2552490234375;	584,25;	0,0;	0,0
555,3229370117188;	558,0;	0,0;	0,0
555,390625;	592,5;	0,0;	0,0
555,458251953125;	521,25;	0,0;	0,0
555,52587890625;	517,75;	0,0;	0,0
555,593505859375;	502,0;	0,0;	0,0
555,6611328125;	506,0;	0,0;	0,0
555,7286987304688;	472,25;	0,0;	0,0
555,7963256835938;	486,0;	0,0;	0,0
555,8638916015625;	487,25;	0,0;	0,0
555,931396484375;	499,0;	0,0;	0,0
555,9989624023438;	523,0;	0,0;	0,0
556,0665283203125;	518,0;	0,0;	0,0
556,1339721679688;	567,0;	0,0;	0,0
556,2014770507812;	544,0;	0,0;	0,0
556,26904296875;	559,0;	0,0;	0,0
556,3364868164062;	557,0;	0,0;	0,0
556,4039306640625;	598,0;	0,0;	0,0
556,4713134765625;	569,5;	0,0;	0,0
556,538818359375;	521,0;	0,0;	0,0
556,6062622070312;	495,5;	0,0;	0,0
556,673583984375;	531,0;	0,0;	0,0
556,7410278320312;	661,5;	0,0;	0,0
556,8084716796875;	938,25;	0,0;	0,0
556,875732421875;	839,5;	0,0;	0,0
556,943115234375;	587,75;	0,0;	0,0
557,010498046875;	602,0;	0,0;	0,0
557,0776977539062;	875,25;	0,0;	0,0
557,1450805664062;	1235,5;	0,0;	0,0
557,2123413085938;	1023,25;	0,0;	0,0
557,2796020507812;	610,75;	0,0;	0,0
557,346923828125;	475,5;	0,0;	0,0
557,4141235351562;	610,5;	0,0;	0,0
557,4813232421875;	674,75;	0,0;	0,0
557,5485229492188;	569,5;	0,0;	0,0
557,6157836914062;	474,75;	0,0;	0,0
557,6829833984375;	432,75;	0,0;	0,0
557,7501831054688;	420,75;	0,0;	0,0
557,8173217773438;	435,75;	0,0;	0,0
557,8844604492188;	436,75;	0,0;	0,0
557,9515991210938;	487,25;	0,0;	0,0
558,0187377929688;	576,75;	0,0;	0,0
558,0858764648438;	614,25;	0,0;	0,0
558,1528930664062;	498,25;	0,0;	0,0
558,219970703125;	475,25;	0,0;	0,0
558,2869873046875;	515,0;	0,0;	0,0
558,3540649414062;	576,25;	0,0;	0,0
558,421142578125;	742,5;	0,0;	0,0
558,4881591796875;	1431,5;	0,0;	0,0
558,55517578125;	1859,0;	0,0;	0,0
558,6221923828125;	1370,5;	0,0;	0,0
558,6891479492188;	1404,5;	0,0;	0,0
558,7561645507812;	1615,25;	0,0;	0,0
558,8230590820312;	1013,75;	0,0;	0,0
558,8900146484375;	680,0;	0,0;	0,0
558,9569702148438;	530,75;	0,0;	0,0
559,0238037109375;	487,75;	0,0;	0,0
559,0906982421875;	499,5;	0,0;	0,0
559,1576538085938;	523,75;	0,0;	0,0
559,2244262695312;	751,5;	0,0;	0,0
559,2913208007812;	1150,75;	0,0;	0,0
559,358154296875;	959,75;	0,0;	0,0
559,4249877929688;	600,25;	0,0;	0,0
559,4918212890625;	488,75;	0,0;	0,0
559,5586547851562;	520,25;	0,0;	0,0
559,6253662109375;	690,75;	0,0;	0,0
559,692138671875;	991,25;	0,0;	0,0
559,7589111328125;	814,5;	0,0;	0,0
559,8256225585938;	552,75;	0,0;	0,0
559,8923950195312;	531,0;	0,0;	0,0
559,9590454101562;	590,25;	0,0;	0,0
560,0257568359375;	637,5;	0,0;	0,0
560,0924682617188;	780,75;	0,0;	0,0
560,1591186523438;	893,75;	0,0;	0,0
560,225830078125;	679,5;	0,0;	0,0
560,29248046875;	483,5;	0,0;	0,0
560,3590698242188;	411,25;	0,0;	0,0
560,4256591796875;	462,25;	0,0;	0,0
560,4921875;	402,75;	0,0;	0,0
560,5587768554688;	398,25;	0,0;	0,0
560,6254272460938;	451,75;	0,0;	0,0
560,6919555664062;	404,5;	0,0;	0,0
560,7584838867188;	441,5;	0,0;	0,0
560,824951171875;	436,75;	0,0;	0,0
560,8914794921875;	433,0;	0,0;	0,0
560,9580688476562;	412,75;	0,0;	0,0
561,0245361328125;	452,25;	0,0;	0,0
561,0909423828125;	450,25;	0,0;	0,0
561,157470703125;	489,25;	0,0;	0,0
561,2238159179688;	529,0;	0,0;	0,0
561,2903442382812;	787,75;	0,0;	0,0
561,3567504882812;	1418,5;	0,0;	0,0
561,4231567382812;	2387,0;	0,0;	0,0
561,489501953125;	1772,5;	0,0;	0,0
561,5558471679688;	793,0;	0,0;	0,0
561,6222534179688;	532,25;	0,0;	0,0
561,6885986328125;	491,75;	0,0;	0,0
561,7548828125;	534,5;	0,0;	0,0
561,8211669921875;	493,25;	0,0;	0,0
561,8875122070312;	494,0;	0,0;	0,0
561,9537963867188;	491,5;	0,0;	0,0
562,0200805664062;	489,75;	0,0;	0,0
562,0863647460938;	488,25;	0,0;	0,0
562,152587890625;	536,5;	0,0;	0,0
562,2188110351562;	549,0;	0,0;	0,0
562,2849731445312;	715,75;	0,0;	0,0
562,3511962890625;	686,25;	0,0;	0,0
562,4174194335938;	587,5;	0,0;	0,0
562,4835205078125;	462,25;	0,0;	0,0
562,5496826171875;	454,5;	0,0;	0,0
562,6159057617188;	449,25;	0,0;	0,0
562,6820068359375;	441,5;	0,0;	0,0
562,748046875;	455,25;	0,0;	0,0
562,814208984375;	466,0;	0,0;	0,0
562,8803100585938;	446,75;	0,0;	0,0
562,9463500976562;	454,5;	0,0;	0,0
563,0123901367188;	471,25;	0,0;	0,0
563,0784301757812;	473,5;	0,0;	0,0
563,14453125;	458,5;	0,0;	0,0
563,21044921875;	489,25;	0,0;	0,0
563,2764892578125;	485,75;	0,0;	0,0
563,3424682617188;	489,0;	0,0;	0,0
563,408447265625;	507,75;	0,0;	0,0
563,4744262695312;	522,25;	0,0;	0,0
563,5404052734375;	506,5;	0,0;	0,0
563,6062622070312;	515,75;	0,0;	0,0
563,6722412109375;	532,0;	0,0;	0,0
563,7380981445312;	560,25;	0,0;	0,0
563,8040161132812;	489,0;	0,0;	0,0
563,869873046875;	468,25;	0,0;	0,0
563,9356689453125;	473,25;	0,0;	0,0
564,0015258789062;	490,0;	0,0;	0,0
564,0673217773438;	502,0;	0,0;	0,0
564,1331787109375;	468,0;	0,0;	0,0
564,1990356445312;	460,0;	0,0;	0,0
564,2647705078125;	456,5;	0,0;	0,0
564,3305053710938;	421,5;	0,0;	0,0
564,3963012695312;	457,0;	0,0;	0,0
564,4620361328125;	462,5;	0,0;	0,0
564,5277709960938;	479,5;	0,0;	0,0
564,593505859375;	472,75;	0,0;	0,0
564,6591796875;	477,75;	0,0;	0,0
564,7249145507812;	470,5;	0,0;	0,0
564,7904663085938;	477,25;	0,0;	0,0
564,856201171875;	494,25;	0,0;	0,0
564,9218139648438;	511,25;	0,0;	0,0
564,9874877929688;	464,25;	0,0;	0,0
565,0530395507812;	490,75;	0,0;	0,0
565,1187133789062;	474,5;	0,0;	0,0
565,1842651367188;	507,0;	0,0;	0,0
565,2498168945312;	522,0;	0,0;	0,0
565,3153686523438;	548,5;	0,0;	0,0
565,3809204101562;	553,75;	0,0;	0,0
565,4464721679688;	592,75;	0,0;	0,0
565,511962890625;	514,5;	0,0;	0,0
565,5774536132812;	512,5;	0,0;	0,0
565,6429443359375;	572,75;	0,0;	0,0
565,7083740234375;	740,25;	0,0;	0,0
565,7738647460938;	759,25;	0,0;	0,0
565,83935546875;	597,75;	0,0;	0,0
565,9047241210938;	504,75;	0,0;	0,0
565,9701538085938;	500,75;	0,0;	0,0
566,0355834960938;	591,0;	0,0;	0,0
566,1009521484375;	649,5;	0,0;	0,0
566,1663208007812;	640,75;	0,0;	0,0
566,2316284179688;	494,25;	0,0;	0,0
566,2969970703125;	509,25;	0,0;	0,0
566,3623657226562;	459,0;	0,0;	0,0
566,4276123046875;	496,75;	0,0;	0,0
566,4929809570312;	505,25;	0,0;	0,0
566,5582275390625;	510,0;	0,0;	0,0
566,6234741210938;	511,5;	0,0;	0,0
566,688720703125;	523,0;	0,0;	0,0
566,7540283203125;	511,75;	0,0;	0,0
566,8192138671875;	509,0;	0,0;	0,0
566,8843994140625;	518,0;	0,0;	0,0
566,9495849609375;	510,75;	0,0;	0,0
567,0147705078125;	494,5;	0,0;	0,0
567,0799560546875;	489,75;	0,0;	0,0
567,1451416015625;	498,0;	0,0;	0,0
567,2102661132812;	513,0;	0,0;	0,0
567,2753295898438;	485,75;	0,0;	0,0
567,3405151367188;	528,25;	0,0;	0,0
567,4055786132812;	501,25;	0,0;	0,0
567,4706420898438;	523,0;	0,0;	0,0
567,5357055664062;	483,5;	0,0;	0,0
567,600830078125;	481,75;	0,0;	0,0
567,6658325195312;	490,5;	0,0;	0,0
567,7308959960938;	533,0;	0,0;	0,0
567,7958374023438;	530,0;	0,0;	0,0
567,86083984375;	547,25;	0,0;	0,0
567,9258422851562;	573,75;	0,0;	0,0
567,9907836914062;	580,75;	0,0;	0,0
568,0557250976562;	707,5;	0,0;	0,0
568,1207275390625;	887,5;	0,0;	0,0
568,185546875;	895,0;	0,0;	0,0
568,25048828125;	786,25;	0,0;	0,0
568,3153686523438;	724,75;	0,0;	0,0
568,3802490234375;	705,75;	0,0;	0,0
568,4451293945312;	670,25;	0,0;	0,0
568,5100708007812;	786,0;	0,0;	0,0
568,5748291015625;	865,0;	0,0;	0,0
568,6396484375;	1147,25;	0,0;	0,0
568,7044677734375;	1350,75;	0,0;	0,0
568,769287109375;	1194,5;	0,0;	0,0
568,8340454101562;	978,5;	0,0;	0,0
568,8987426757812;	850,0;	0,0;	0,0
568,9635009765625;	741,0;	0,0;	0,0
569,0282592773438;	685,25;	0,0;	0,0
569,0929565429688;	673,25;	0,0;	0,0
569,15771484375;	621,25;	0,0;	0,0
569,222412109375;	588,0;	0,0;	0,0
569,2870483398438;	609,0;	0,0;	0,0
569,3517456054688;	548,0;	0,0;	0,0
569,4163818359375;	502,0;	0,0;	0,0
569,4810180664062;	513,0;	0,0;	0,0
569,5455932617188;	492,5;	0,0;	0,0
569,6102294921875;	517,0;	0,0;	0,0
569,6748657226562;	510,0;	0,0;	0,0
569,7393188476562;	513,5;	0,0;	0,0
569,803955078125;	488,0;	0,0;	0,0
569,8685302734375;	500,75;	0,0;	0,0
569,9330444335938;	532,0;	0,0;	0,0
569,9974975585938;	561,0;	0,0;	0,0
570,0620727539062;	529,75;	0,0;	0,0
570,1265258789062;	500,0;	0,0;	0,0
570,1910400390625;	477,25;	0,0;	0,0
570,2554931640625;	479,0;	0,0;	0,0
570,3198852539062;	507,0;	0,0;	0,0
570,3843383789062;	519,25;	0,0;	0,0
570,44873046875;	559,0;	0,0;	0,0
570,51318359375;	572,5;	0,0;	0,0
570,5775756835938;	511,5;	0,0;	0,0
570,6419067382812;	486,5;	0,0;	0,0
570,706298828125;	502,5;	0,0;	0,0
570,7706298828125;	637,5;	0,0;	0,0
570,8349609375;	599,75;	0,0;	0,0
570,8992919921875;	515,75;	0,0;	0,0
570,963623046875;	484,25;	0,0;	0,0
571,02783203125;	506,75;	0,0;	0,0
571,0921020507812;	517,75;	0,0;	0,0
571,1563110351562;	477,75;	0,0;	0,0
571,2206420898438;	450,75;	0,0;	0,0
571,2848510742188;	503,0;	0,0;	0,0
571,3489990234375;	469,25;	0,0;	0,0
571,4132080078125;	462,75;	0,0;	0,0
571,4774169921875;	469,75;	0,0;	0,0
571,5415649414062;	481,75;	0,0;	0,0
571,6057739257812;	491,5;	0,0;	0,0
571,6698608398438;	465,0;	0,0;	0,0
571,7340087890625;	484,75;	0,0;	0,0
571,7981567382812;	450,75;	0,0;	0,0
571,8621826171875;	477,75;	0,0;	0,0
571,92626953125;	515,25;	0,0;	0,0
571,9904174804688;	411,0;	0,0;	0,0
572,0543823242188;	450,25;	0,0;	0,0
572,1184692382812;	469,75;	0,0;	0,0
572,1824951171875;	428,75;	0,0;	0,0
572,2464599609375;	448,5;	0,0;	0,0
572,3104858398438;	462,5;	0,0;	0,0
572,3744506835938;	430,0;	0,0;	0,0
572,4384155273438;	446,75;	0,0;	0,0
572,5023803710938;	448,75;	0,0;	0,0
572,5662841796875;	428,25;	0,0;	0,0
572,6301879882812;	483,75;	0,0;	0,0
572,6941528320312;	458,0;	0,0;	0,0
572,7579956054688;	476,25;	0,0;	0,0
572,8218383789062;	451,75;	0,0;	0,0
572,8856811523438;	454,0;	0,0;	0,0
572,9495849609375;	446,25;	0,0;	0,0
573,013427734375;	452,5;	0,0;	0,0
573,0772705078125;	455,0;	0,0;	0,0
573,1410522460938;	426,75;	0,0;	0,0
573,204833984375;	451,5;	0,0;	0,0
573,2686157226562;	428,0;	0,0;	0,0
573,3323364257812;	426,25;	0,0;	0,0
573,3961181640625;	452,0;	0,0;	0,0
573,4598388671875;	449,25;	0,0;	0,0
573,5235595703125;	456,25;	0,0;	0,0
573,5872192382812;	429,0;	0,0;	0,0
573,6509399414062;	469,0;	0,0;	0,0
573,714599609375;	425,5;	0,0;	0,0
573,7781982421875;	408,0;	0,0;	0,0
573,8418579101562;	450,5;	0,0;	0,0
573,905517578125;	438,5;	0,0;	0,0
573,9691162109375;	435,5;	0,0;	0,0
574,0327758789062;	455,75;	0,0;	0,0
574,0963745117188;	442,0;	0,0;	0,0
574,1598510742188;	445,75;	0,0;	0,0
574,2234497070312;	457,75;	0,0;	0,0
574,2869873046875;	449,75;	0,0;	0,0
574,3504638671875;	449,75;	0,0;	0,0
574,4140014648438;	395,5;	0,0;	0,0
574,4775390625;	426,75;	0,0;	0,0
574,5409545898438;	446,25;	0,0;	0,0
574,6044921875;	486,75;	0,0;	0,0
574,6679077148438;	438,75;	0,0;	0,0
574,7313232421875;	450,25;	0,0;	0,0
574,7947998046875;	445,25;	0,0;	0,0
574,858154296875;	460,5;	0,0;	0,0
574,9215698242188;	437,75;	0,0;	0,0
574,98486328125;	467,75;	0,0;	0,0
575,04833984375;	500,5;	0,0;	0,0
575,1116943359375;	484,0;	0,0;	0,0
575,1749877929688;	532,75;	0,0;	0,0
575,2383422851562;	487,25;	0,0;	0,0
575,3016357421875;	455,75;	0,0;	0,0
575,3648681640625;	464,25;	0,0;	0,0
575,42822265625;	458,5;	0,0;	0,0
575,491455078125;	432,25;	0,0;	0,0
575,5546264648438;	442,5;	0,0;	0,0
575,617919921875;	439,75;	0,0;	0,0
575,6810913085938;	461,0;	0,0;	0,0
575,7442626953125;	453,75;	0,0;	0,0
575,8074951171875;	436,5;	0,0;	0,0
575,8706665039062;	467,75;	0,0;	0,0
575,933837890625;	455,25;	0,0;	0,0
575,9969482421875;	482,5;	0,0;	0,0
576,06005859375;	504,75;	0,0;	0,0
576,1232299804688;	626,75;	0,0;	0,0
576,186279296875;	626,25;	0,0;	0,0
576,2493896484375;	546,5;	0,0;	0,0
576,3125;	473,25;	0,0;	0,0
576,37548828125;	450,25;	0,0;	0,0
576,4385375976562;	447,75;	0,0;	0,0
576,5015869140625;	450,0;	0,0;	0,0
576,5645751953125;	419,75;	0,0;	0,0
576,6275634765625;	445,0;	0,0;	0,0
576,6904907226562;	422,0;	0,0;	0,0
576,7534790039062;	436,25;	0,0;	0,0
576,8164672851562;	423,0;	0,0;	0,0
576,87939453125;	447,25;	0,0;	0,0
576,9423217773438;	441,0;	0,0;	0,0
577,0052490234375;	448,5;	0,0;	0,0
577,068115234375;	446,5;	0,0;	0,0
577,1309814453125;	445,5;	0,0;	0,0
577,1939086914062;	442,5;	0,0;	0,0
577,2567138671875;	458,0;	0,0;	0,0
577,3195190429688;	445,25;	0,0;	0,0
577,38232421875;	473,75;	0,0;	0,0
577,4451293945312;	451,75;	0,0;	0,0
577,5079956054688;	444,25;	0,0;	0,0
577,5706787109375;	420,0;	0,0;	0,0
577,6334838867188;	484,5;	0,0;	0,0
577,6962890625;	463,25;	0,0;	0,0
577,7589721679688;	453,75;	0,0;	0,0
577,8216552734375;	446,5;	0,0;	0,0
577,8843994140625;	452,5;	0,0;	0,0
577,947021484375;	468,25;	0,0;	0,0
578,009765625;	450,0;	0,0;	0,0
578,0723876953125;	522,75;	0,0;	0,0
578,135009765625;	504,25;	0,0;	0,0
578,1976928710938;	504,75;	0,0;	0,0
578,2601928710938;	447,5;	0,0;	0,0
578,3228149414062;	460,5;	0,0;	0,0
578,3854370117188;	473,25;	0,0;	0,0
578,447998046875;	464,0;	0,0;	0,0
578,5105590820312;	448,25;	0,0;	0,0
578,5731201171875;	425,75;	0,0;	0,0
578,6356201171875;	428,25;	0,0;	0,0
578,6981811523438;	486,0;	0,0;	0,0
578,7605590820312;	480,5;	0,0;	0,0
578,8231201171875;	536,0;	0,0;	0,0
578,8855590820312;	512,75;	0,0;	0,0
578,9479370117188;	488,0;	0,0;	0,0
579,0104370117188;	486,5;	0,0;	0,0
579,0728149414062;	483,75;	0,0;	0,0
579,1351928710938;	458,0;	0,0;	0,0
579,1976318359375;	472,75;	0,0;	0,0
579,260009765625;	445,0;	0,0;	0,0
579,3223266601562;	425,25;	0,0;	0,0
579,3847045898438;	480,25;	0,0;	0,0
579,447021484375;	465,5;	0,0;	0,0
579,5093383789062;	454,75;	0,0;	0,0
579,5716552734375;	471,0;	0,0;	0,0
579,6339111328125;	486,5;	0,0;	0,0
579,6962280273438;	445,0;	0,0;	0,0
579,7583618164062;	452,25;	0,0;	0,0
579,8206787109375;	457,25;	0,0;	0,0
579,8829345703125;	466,0;	0,0;	0,0
579,9451293945312;	470,25;	0,0;	0,0
580,0072631835938;	546,5;	0,0;	0,0
580,0695190429688;	510,5;	0,0;	0,0
580,131591796875;	496,5;	0,0;	0,0
580,1937866210938;	469,5;	0,0;	0,0
580,2559204101562;	493,0;	0,0;	0,0
580,3180541992188;	482,25;	0,0;	0,0
580,3801879882812;	513,25;	0,0;	0,0
580,4421997070312;	477,75;	0,0;	0,0
580,5043334960938;	488,75;	0,0;	0,0
580,56640625;	509,5;	0,0;	0,0
580,62841796875;	489,0;	0,0;	0,0
580,6904907226562;	490,5;	0,0;	0,0
580,7525024414062;	489,25;	0,0;	0,0
580,814453125;	470,25;	0,0;	0,0
580,87646484375;	500,25;	0,0;	0,0
580,9384765625;	483,5;	0,0;	0,0
581,0003662109375;	459,75;	0,0;	0,0
581,0623779296875;	503,0;	0,0;	0,0
581,124267578125;	469,5;	0,0;	0,0
581,1861572265625;	459,0;	0,0;	0,0
581,2481079101562;	478,75;	0,0;	0,0
581,3099365234375;	502,75;	0,0;	0,0
581,371826171875;	535,0;	0,0;	0,0
581,4336547851562;	495,25;	0,0;	0,0
581,4954833984375;	510,0;	0,0;	0,0
581,557373046875;	479,75;	0,0;	0,0
581,619140625;	467,25;	0,0;	0,0
581,680908203125;	475,0;	0,0;	0,0
581,7427368164062;	471,0;	0,0;	0,0
581,804443359375;	476,0;	0,0;	0,0
581,8662109375;	500,25;	0,0;	0,0
581,9279174804688;	470,0;	0,0;	0,0
581,9896850585938;	508,0;	0,0;	0,0
582,0513916015625;	462,5;	0,0;	0,0
582,113037109375;	515,0;	0,0;	0,0
582,1747436523438;	486,5;	0,0;	0,0
582,2363891601562;	501,0;	0,0;	0,0
582,2979736328125;	501,0;	0,0;	0,0
582,359619140625;	485,25;	0,0;	0,0
582,4212646484375;	495,5;	0,0;	0,0
582,4828491210938;	533,75;	0,0;	0,0
582,5444946289062;	498,0;	0,0;	0,0
582,6060180664062;	502,0;	0,0;	0,0
582,6675415039062;	485,5;	0,0;	0,0
582,7290649414062;	516,75;	0,0;	0,0
582,7905883789062;	503,25;	0,0;	0,0
582,8521118164062;	500,0;	0,0;	0,0
582,9136352539062;	520,0;	0,0;	0,0
582,9750366210938;	527,75;	0,0;	0,0
583,0365600585938;	510,75;	0,0;	0,0
583,0980224609375;	528,0;	0,0;	0,0
583,159423828125;	520,5;	0,0;	0,0
583,2208862304688;	505,5;	0,0;	0,0
583,2822875976562;	515,75;	0,0;	0,0
583,3436279296875;	488,75;	0,0;	0,0
583,405029296875;	521,0;	0,0;	0,0
583,46630859375;	500,75;	0,0;	0,0
583,5277099609375;	512,25;	0,0;	0,0
583,5890502929688;	497,25;	0,0;	0,0
583,6503295898438;	533,75;	0,0;	0,0
583,711669921875;	513,0;	0,0;	0,0
583,77294921875;	528,25;	0,0;	0,0
583,8341674804688;	537,0;	0,0;	0,0
583,8955078125;	494,5;	0,0;	0,0
583,9567260742188;	452,25;	0,0;	0,0
584,0179443359375;	530,5;	0,0;	0,0
584,0791015625;	484,0;	0,0;	0,0
584,1403198242188;	513,5;	0,0;	0,0
584,2014770507812;	516,25;	0,0;	0,0
584,2626342773438;	525,0;	0,0;	0,0
584,3237915039062;	506,25;	0,0;	0,0
584,3849487304688;	503,0;	0,0;	0,0
584,4459838867188;	539,75;	0,0;	0,0
584,5071411132812;	518,5;	0,0;	0,0
584,5682373046875;	518,5;	0,0;	0,0
584,6293334960938;	479,0;	0,0;	0,0
584,6903076171875;	557,5;	0,0;	0,0
584,7514038085938;	521,25;	0,0;	0,0
584,8123779296875;	529,75;	0,0;	0,0
584,8734130859375;	493,25;	0,0;	0,0
584,9344482421875;	513,5;	0,0;	0,0
584,9954223632812;	538,75;	0,0;	0,0
585,056396484375;	494,5;	0,0;	0,0
585,1173095703125;	530,75;	0,0;	0,0
585,1782836914062;	571,0;	0,0;	0,0
585,2391967773438;	548,25;	0,0;	0,0
585,3001098632812;	554,75;	0,0;	0,0
585,3609619140625;	589,25;	0,0;	0,0
585,4219360351562;	568,25;	0,0;	0,0
585,4827270507812;	629,0;	0,0;	0,0
585,5435791015625;	814,0;	0,0;	0,0
585,6044311523438;	971,75;	0,0;	0,0
585,6652221679688;	852,0;	0,0;	0,0
585,72607421875;	728,5;	0,0;	0,0
585,7868041992188;	651,0;	0,0;	0,0
585,8475952148438;	594,0;	0,0;	0,0
585,9083251953125;	615,25;	0,0;	0,0
585,9690551757812;	618,0;	0,0;	0,0
586,02978515625;	616,75;	0,0;	0,0
586,090576171875;	685,0;	0,0;	0,0
586,1511840820312;	599,0;	0,0;	0,0
586,2118530273438;	637,0;	0,0;	0,0
586,2725830078125;	642,0;	0,0;	0,0
586,3331909179688;	555,75;	0,0;	0,0
586,393798828125;	559,0;	0,0;	0,0
586,4544067382812;	572,5;	0,0;	0,0
586,5150146484375;	593,0;	0,0;	0,0
586,57568359375;	571,0;	0,0;	0,0
586,6361694335938;	610,75;	0,0;	0,0
586,6967163085938;	638,5;	0,0;	0,0
586,7573852539062;	667,75;	0,0;	0,0
586,8178100585938;	644,0;	0,0;	0,0
586,8783569335938;	655,5;	0,0;	0,0
586,9388427734375;	733,25;	0,0;	0,0
586,9993896484375;	658,75;	0,0;	0,0
587,0598754882812;	670,25;	0,0;	0,0
587,1202392578125;	731,0;	0,0;	0,0
587,1807250976562;	690,75;	0,0;	0,0
587,2410888671875;	735,0;	0,0;	0,0
587,301513671875;	742,75;	0,0;	0,0
587,3619384765625;	770,0;	0,0;	0,0
587,4223022460938;	791,5;	0,0;	0,0
587,482666015625;	805,75;	0,0;	0,0
587,5430297851562;	785,0;	0,0;	0,0
587,6033325195312;	813,75;	0,0;	0,0
587,6636352539062;	841,0;	0,0;	0,0
587,7239990234375;	865,75;	0,0;	0,0
587,7841796875;	948,25;	0,0;	0,0
587,8445434570312;	908,0;	0,0;	0,0
587,90478515625;	1012,75;	0,0;	0,0
587,9649658203125;	1081,5;	0,0;	0,0
588,0252075195312;	1217,25;	0,0;	0,0
588,08544921875;	1249,0;	0,0;	0,0
588,1456298828125;	1306,0;	0,0;	0,0
588,205810546875;	1564,75;	0,0;	0,0
588,2659301757812;	1739,25;	0,0;	0,0
588,3261108398438;	2039,0;	0,0;	0,0
588,3862915039062;	2380,0;	0,0;	0,0
588,4464111328125;	2919,5;	0,0;	0,0
588,5065307617188;	3786,75;	0,0;	0,0
588,5665893554688;	5350,5;	0,0;	0,0
588,6266479492188;	7779,0;	0,0;	0,0
588,6867065429688;	12275,0;	0,0;	0,0
588,7467041015625;	16383,75;	0,0;	0,0
588,8067626953125;	16383,75;	0,0;	0,0
588,8667602539062;	16383,75;	0,0;	0,0
588,9267578125;	16383,75;	0,0;	0,0
588,9867553710938;	16383,75;	0,0;	0,0
589,0467529296875;	9755,0;	0,0;	0,0
589,106689453125;	7066,25;	0,0;	0,0
589,1666259765625;	6055,75;	0,0;	0,0
589,2265625;	6586,75;	0,0;	0,0
589,2864379882812;	9323,0;	0,0;	0,0
589,3463745117188;	15239,5;	0,0;	0,0
589,4061889648438;	16383,75;	0,0;	0,0
589,466064453125;	16383,75;	0,0;	0,0
589,5259399414062;	16383,75;	0,0;	0,0
589,5857543945312;	11651,5;	0,0;	0,0
589,6455688476562;	6069,75;	0,0;	0,0
589,7053833007812;	3843,0;	0,0;	0,0
589,76513671875;	2909,0;	0,0;	0,0
589,824951171875;	2345,0;	0,0;	0,0
589,8847045898438;	2033,25;	0,0;	0,0
589,9443969726562;	1707,25;	0,0;	0,0
590,004150390625;	1565,0;	0,0;	0,0
590,0638427734375;	1393,0;	0,0;	0,0
590,12353515625;	1316,0;	0,0;	0,0
590,1832275390625;	1214,0;	0,0;	0,0
590,2428588867188;	1183,0;	0,0;	0,0
590,302490234375;	1031,0;	0,0;	0,0
590,3621215820312;	1050,0;	0,0;	0,0
590,4217529296875;	1037,0;	0,0;	0,0
590,4813842773438;	961,0;	0,0;	0,0
590,5409545898438;	938,0;	0,0;	0,0
590,6005249023438;	942,5;	0,0;	0,0
590,6600952148438;	851,5;	0,0;	0,0
590,7196044921875;	841,0;	0,0;	0,0
590,7791137695312;	869,5;	0,0;	0,0
590,8386840820312;	801,0;	0,0;	0,0
590,8981323242188;	809,25;	0,0;	0,0
590,9576416015625;	788,25;	0,0;	0,0
591,0170288085938;	816,5;	0,0;	0,0
591,0765380859375;	843,25;	0,0;	0,0
591,135986328125;	827,0;	0,0;	0,0
591,1953735351562;	891,5;	0,0;	0,0
591,2547607421875;	964,5;	0,0;	0,0
591,314208984375;	810,75;	0,0;	0,0
591,37353515625;	776,5;	0,0;	0,0
591,4329223632812;	734,5;	0,0;	0,0
591,4922485351562;	761,75;	0,0;	0,0
591,551513671875;	703,75;	0,0;	0,0
591,6109008789062;	750,75;	0,0;	0,0
591,670166015625;	747,75;	0,0;	0,0
591,7294921875;	728,75;	0,0;	0,0
591,7887573242188;	693,75;	0,0;	0,0
591,847900390625;	757,75;	0,0;	0,0
591,9071655273438;	757,25;	0,0;	0,0
591,9664306640625;	660,25;	0,0;	0,0
592,025634765625;	673,75;	0,0;	0,0
592,0847778320312;	679,75;	0,0;	0,0
592,1439819335938;	710,25;	0,0;	0,0
592,203125;	702,5;	0,0;	0,0
592,2622680664062;	673,0;	0,0;	0,0
592,3214111328125;	695,25;	0,0;	0,0
592,3804931640625;	637,75;	0,0;	0,0
592,4396362304688;	619,5;	0,0;	0,0
592,4987182617188;	680,75;	0,0;	0,0
592,5577392578125;	683,0;	0,0;	0,0
592,6167602539062;	673,0;	0,0;	0,0
592,6758422851562;	651,75;	0,0;	0,0
592,73486328125;	683,75;	0,0;	0,0
592,7938842773438;	718,75;	0,0;	0,0
592,8528442382812;	753,5;	0,0;	0,0
592,9118041992188;	719,5;	0,0;	0,0
592,9707641601562;	675,75;	0,0;	0,0
593,0297241210938;	655,75;	0,0;	0,0
593,0886840820312;	629,75;	0,0;	0,0
593,1475219726562;	645,75;	0,0;	0,0
593,2064819335938;	667,25;	0,0;	0,0
593,2652587890625;	668,25;	0,0;	0,0
593,32421875;	636,75;	0,0;	0,0
593,383056640625;	659,25;	0,0;	0,0
593,44189453125;	631,75;	0,0;	0,0
593,5006713867188;	621,5;	0,0;	0,0
593,5595703125;	635,0;	0,0;	0,0
593,6182861328125;	646,75;	0,0;	0,0
593,6770629882812;	577,5;	0,0;	0,0
593,73583984375;	598,25;	0,0;	0,0
593,7945556640625;	625,25;	0,0;	0,0
593,853271484375;	593,0;	0,0;	0,0
593,9119262695312;	608,25;	0,0;	0,0
593,970703125;	582,75;	0,0;	0,0
594,0293579101562;	563,0;	0,0;	0,0
594,0880126953125;	615,0;	0,0;	0,0
594,146728515625;	606,5;	0,0;	0,0
594,205322265625;	597,5;	0,0;	0,0
594,263916015625;	568,75;	0,0;	0,0
594,3225708007812;	541,5;	0,0;	0,0
594,3811645507812;	571,5;	0,0;	0,0
594,439697265625;	578,75;	0,0;	0,0
594,498291015625;	576,25;	0,0;	0,0
594,5567626953125;	582,25;	0,0;	0,0
594,6153564453125;	571,75;	0,0;	0,0
594,673828125;	570,75;	0,0;	0,0
594,7322998046875;	570,25;	0,0;	0,0
594,790771484375;	575,5;	0,0;	0,0
594,8492431640625;	559,5;	0,0;	0,0
594,90771484375;	536,75;	0,0;	0,0
594,9661254882812;	544,75;	0,0;	0,0
595,0245971679688;	561,5;	0,0;	0,0
595,0829467773438;	576,25;	0,0;	0,0
595,141357421875;	561,25;	0,0;	0,0
595,19970703125;	557,75;	0,0;	0,0
595,2581176757812;	565,25;	0,0;	0,0
595,3164672851562;	537,75;	0,0;	0,0
595,374755859375;	534,5;	0,0;	0,0
595,4330444335938;	554,5;	0,0;	0,0
595,4913330078125;	575,25;	0,0;	0,0
595,5496215820312;	562,0;	0,0;	0,0
595,60791015625;	568,75;	0,0;	0,0
595,6661987304688;	543,75;	0,0;	0,0
595,724365234375;	542,75;	0,0;	0,0
595,7825927734375;	522,0;	0,0;	0,0
595,8408203125;	530,0;	0,0;	0,0
595,8989868164062;	550,75;	0,0;	0,0
595,9572143554688;	585,25;	0,0;	0,0
596,0153198242188;	561,75;	0,0;	0,0
596,073486328125;	539,5;	0,0;	0,0
596,1315307617188;	557,5;	0,0;	0,0
596,1896362304688;	567,25;	0,0;	0,0
596,247802734375;	533,5;	0,0;	0,0
596,3058471679688;	582,75;	0,0;	0,0
596,3638916015625;	543,25;	0,0;	0,0
596,4219970703125;	561,25;	0,0;	0,0
596,47998046875;	561,5;	0,0;	0,0
596,5380249023438;	573,75;	0,0;	0,0
596,5960083007812;	546,25;	0,0;	0,0
596,6539916992188;	538,5;	0,0;	0,0
596,7119750976562;	588,0;	0,0;	0,0
596,7698364257812;	530,25;	0,0;	0,0
596,8278198242188;	510,25;	0,0;	0,0
596,8858032226562;	553,5;	0,0;	0,0
596,9436645507812;	538,25;	0,0;	0,0
597,0015869140625;	544,0;	0,0;	0,0
597,0595092773438;	544,0;	0,0;	0,0
597,1173095703125;	540,0;	0,0;	0,0
597,1751098632812;	552,75;	0,0;	0,0
597,2329711914062;	554,5;	0,0;	0,0
597,290771484375;	532,0;	0,0;	0,0
597,3486328125;	537,5;	0,0;	0,0
597,4063110351562;	600,0;	0,0;	0,0
597,4641723632812;	571,25;	0,0;	0,0
597,5219116210938;	546,75;	0,0;	0,0
597,57958984375;	569,5;	0,0;	0,0
597,6373291015625;	530,75;	0,0;	0,0
597,695068359375;	574,0;	0,0;	0,0
597,7527465820312;	553,5;	0,0;	0,0
597,8104248046875;	557,25;	0,0;	0,0
597,8681030273438;	537,75;	0,0;	0,0
597,9257202148438;	548,75;	0,0;	0,0
597,9833374023438;	579,0;	0,0;	0,0
598,0408935546875;	560,75;	0,0;	0,0
598,0985107421875;	513,0;	0,0;	0,0
598,1561279296875;	597,25;	0,0;	0,0
598,2136840820312;	679,75;	0,0;	0,0
598,271240234375;	645,5;	0,0;	0,0
598,3287353515625;	607,25;	0,0;	0,0
598,3862915039062;	625,5;	0,0;	0,0
598,44384765625;	566,0;	0,0;	0,0
598,5012817382812;	588,25;	0,0;	0,0
598,5587158203125;	581,75;	0,0;	0,0
598,6162109375;	535,5;	0,0;	0,0
598,673583984375;	557,25;	0,0;	0,0
598,7310791015625;	535,5;	0,0;	0,0
598,7885131835938;	512,5;	0,0;	0,0
598,8458251953125;	527,25;	0,0;	0,0
598,9032592773438;	506,25;	0,0;	0,0
598,9605712890625;	478,0;	0,0;	0,0
599,0179443359375;	508,75;	0,0;	0,0
599,0753173828125;	565,25;	0,0;	0,0
599,132568359375;	515,0;	0,0;	0,0
599,1898803710938;	554,5;	0,0;	0,0
599,2472534179688;	509,5;	0,0;	0,0
599,3043823242188;	487,75;	0,0;	0,0
599,3616943359375;	542,0;	0,0;	0,0
599,4189453125;	520,5;	0,0;	0,0
599,4761352539062;	514,75;	0,0;	0,0
599,5333251953125;	511,25;	0,0;	0,0
599,5905151367188;	521,75;	0,0;	0,0
599,647705078125;	534,5;	0,0;	0,0
599,7049560546875;	517,25;	0,0;	0,0
599,7620239257812;	501,75;	0,0;	0,0
599,8191528320312;	507,5;	0,0;	0,0
599,8762817382812;	492,25;	0,0;	0,0
599,933349609375;	517,75;	0,0;	0,0
599,9904174804688;	518,5;	0,0;	0,0
600,0475463867188;	489,75;	0,0;	0,0
600,1045532226562;	564,75;	0,0;	0,0
600,16162109375;	582,0;	0,0;	0,0
600,2186279296875;	572,25;	0,0;	0,0
600,2755737304688;	567,25;	0,0;	0,0
600,3326416015625;	536,75;	0,0;	0,0
600,3895874023438;	513,75;	0,0;	0,0
600,446533203125;	532,5;	0,0;	0,0
600,5034790039062;	539,0;	0,0;	0,0
600,5603637695312;	550,0;	0,0;	0,0
600,6172485351562;	553,25;	0,0;	0,0
600,6742553710938;	562,75;	0,0;	0,0
600,7310791015625;	594,75;	0,0;	0,0
600,7879028320312;	562,5;	0,0;	0,0
600,8447265625;	505,5;	0,0;	0,0
600,9015502929688;	527,5;	0,0;	0,0
600,9584350585938;	516,75;	0,0;	0,0
601,0151977539062;	488,75;	0,0;	0,0
601,0719604492188;	496,75;	0,0;	0,0
601,1287231445312;	498,75;	0,0;	0,0
601,185546875;	484,75;	0,0;	0,0
601,2422485351562;	503,75;	0,0;	0,0
601,2989501953125;	491,25;	0,0;	0,0
601,355712890625;	524,75;	0,0;	0,0
601,412353515625;	548,25;	0,0;	0,0
601,468994140625;	524,25;	0,0;	0,0
601,5256958007812;	545,25;	0,0;	0,0
601,5823364257812;	552,0;	0,0;	0,0
601,6389770507812;	527,25;	0,0;	0,0
601,695556640625;	531,0;	0,0;	0,0
601,7521362304688;	555,0;	0,0;	0,0
601,8087158203125;	608,0;	0,0;	0,0
601,8652954101562;	618,0;	0,0;	0,0
601,9218139648438;	595,0;	0,0;	0,0
601,9783935546875;	554,0;	0,0;	0,0
602,034912109375;	578,0;	0,0;	0,0
602,0913696289062;	581,5;	0,0;	0,0
602,1478271484375;	615,5;	0,0;	0,0
602,204345703125;	687,5;	0,0;	0,0
602,2608032226562;	763,5;	0,0;	0,0
602,3171997070312;	647,5;	0,0;	0,0
602,3736572265625;	576,75;	0,0;	0,0
602,4300537109375;	519,75;	0,0;	0,0
602,4864501953125;	554,75;	0,0;	0,0
602,5427856445312;	534,25;	0,0;	0,0
602,5991821289062;	569,75;	0,0;	0,0
602,655517578125;	489,25;	0,0;	0,0
602,7117919921875;	500,75;	0,0;	0,0
602,7681274414062;	481,25;	0,0;	0,0
602,824462890625;	506,5;	0,0;	0,0
602,8806762695312;	494,75;	0,0;	0,0
602,93701171875;	493,5;	0,0;	0,0
602,9932250976562;	500,75;	0,0;	0,0
603,0494384765625;	532,5;	0,0;	0,0
603,105712890625;	506,75;	0,0;	0,0
603,161865234375;	469,75;	0,0;	0,0
603,2180786132812;	505,75;	0,0;	0,0
603,2742309570312;	493,75;	0,0;	0,0
603,3303833007812;	516,25;	0,0;	0,0
603,3865356445312;	477,25;	0,0;	0,0
603,4426879882812;	482,25;	0,0;	0,0
603,498779296875;	490,75;	0,0;	0,0
603,5548706054688;	465,75;	0,0;	0,0
603,6109008789062;	496,5;	0,0;	0,0
603,6669311523438;	445,5;	0,0;	0,0
603,7230224609375;	473,5;	0,0;	0,0
603,7789916992188;	482,25;	0,0;	0,0
603,8350219726562;	502,75;	0,0;	0,0
603,8909912109375;	503,25;	0,0;	0,0
603,947021484375;	490,25;	0,0;	0,0
604,0030517578125;	487,25;	0,0;	0,0
604,0589599609375;	508,0;	0,0;	0,0
604,1148681640625;	505,75;	0,0;	0,0
604,1707763671875;	493,0;	0,0;	0,0
604,2266845703125;	512,5;	0,0;	0,0
604,2825317382812;	461,5;	0,0;	0,0
604,3385009765625;	456,5;	0,0;	0,0
604,394287109375;	488,75;	0,0;	0,0
604,4501342773438;	493,5;	0,0;	0,0
604,5059204101562;	489,75;	0,0;	0,0
604,5617065429688;	471,25;	0,0;	0,0
604,6175537109375;	510,25;	0,0;	0,0
604,67333984375;	491,25;	0,0;	0,0
604,7290649414062;	497,25;	0,0;	0,0
604,7847900390625;	529,25;	0,0;	0,0
604,8405151367188;	486,0;	0,0;	0,0
604,896240234375;	473,5;	0,0;	0,0
604,9519653320312;	480,5;	0,0;	0,0
605,007568359375;	438,0;	0,0;	0,0
605,0632934570312;	474,5;	0,0;	0,0
605,118896484375;	462,0;	0,0;	0,0
605,174560546875;	512,75;	0,0;	0,0
605,2301635742188;	490,25;	0,0;	0,0
605,2857666015625;	527,5;	0,0;	0,0
605,34130859375;	540,25;	0,0;	0,0
605,3969116210938;	550,5;	0,0;	0,0
605,4524536132812;	542,25;	0,0;	0,0
605,5079956054688;	542,5;	0,0;	0,0
605,5635375976562;	536,25;	0,0;	0,0
605,6190185546875;	482,5;	0,0;	0,0
605,674560546875;	484,75;	0,0;	0,0
605,7299194335938;	506,5;	0,0;	0,0
605,7854614257812;	473,25;	0,0;	0,0
605,8409423828125;	506,0;	0,0;	0,0
605,896240234375;	489,25;	0,0;	0,0
605,9517211914062;	514,75;	0,0;	0,0
606,0070190429688;	469,75;	0,0;	0,0
606,0625;	492,5;	0,0;	0,0
606,1178588867188;	474,0;	0,0;	0,0
606,1732177734375;	521,0;	0,0;	0,0
606,228515625;	527,75;	0,0;	0,0
606,2838745117188;	529,75;	0,0;	0,0
606,339111328125;	610,25;	0,0;	0,0
606,3944091796875;	676,0;	0,0;	0,0
606,44970703125;	675,0;	0,0;	0,0
606,5048828125;	515,25;	0,0;	0,0
606,5601806640625;	482,25;	0,0;	0,0
606,6153564453125;	452,0;	0,0;	0,0
606,6705322265625;	472,0;	0,0;	0,0
606,7257690429688;	470,0;	0,0;	0,0
606,781005859375;	468,0;	0,0;	0,0
606,8360595703125;	462,0;	0,0;	0,0
606,8912353515625;	433,5;	0,0;	0,0
606,9463500976562;	464,0;	0,0;	0,0
607,0014038085938;	475,0;	0,0;	0,0
607,0565795898438;	485,0;	0,0;	0,0
607,1116333007812;	451,0;	0,0;	0,0
607,1666870117188;	450,25;	0,0;	0,0
607,2216796875;	470,0;	0,0;	0,0
607,2767333984375;	461,0;	0,0;	0,0
607,331787109375;	456,0;	0,0;	0,0
607,38671875;	424,0;	0,0;	0,0
607,4417114257812;	451,5;	0,0;	0,0
607,4967041015625;	467,0;	0,0;	0,0
607,5515747070312;	424,5;	0,0;	0,0
607,6065673828125;	476,0;	0,0;	0,0
607,6615600585938;	508,0;	0,0;	0,0
607,7163696289062;	516,75;	0,0;	0,0
607,771240234375;	521,5;	0,0;	0,0
607,8261108398438;	498,75;	0,0;	0,0
607,8809814453125;	464,5;	0,0;	0,0
607,935791015625;	464,5;	0,0;	0,0
607,9906005859375;	471,75;	0,0;	0,0
608,0454711914062;	451,75;	0,0;	0,0
608,1001586914062;	488,25;	0,0;	0,0
608,1549682617188;	474,75;	0,0;	0,0
608,2097778320312;	471,75;	0,0;	0,0
608,2645263671875;	461,25;	0,0;	0,0
608,3191528320312;	475,75;	0,0;	0,0
608,3739013671875;	465,5;	0,0;	0,0
608,4285888671875;	510,75;	0,0;	0,0
608,4832153320312;	450,75;	0,0;	0,0
608,5379638671875;	473,5;	0,0;	0,0
608,5925903320312;	456,75;	0,0;	0,0
608,647216796875;	480,25;	0,0;	0,0
608,7017822265625;	480,75;	0,0;	0,0
608,7564086914062;	475,25;	0,0;	0,0
608,8109741210938;	480,25;	0,0;	0,0
608,8656005859375;	499,75;	0,0;	0,0
608,9201049804688;	518,5;	0,0;	0,0
608,974609375;	473,25;	0,0;	0,0
609,0291137695312;	500,0;	0,0;	0,0
609,0836181640625;	488,5;	0,0;	0,0
609,1381225585938;	485,75;	0,0;	0,0
609,1925659179688;	465,75;	0,0;	0,0
609,2470092773438;	506,5;	0,0;	0,0
609,3014526367188;	522,0;	0,0;	0,0
609,3558349609375;	512,75;	0,0;	0,0
609,4102783203125;	526,75;	0,0;	0,0
609,4646606445312;	538,75;	0,0;	0,0
609,51904296875;	534,75;	0,0;	0,0
609,5734252929688;	507,5;	0,0;	0,0
609,627685546875;	514,25;	0,0;	0,0
609,6820678710938;	540,75;	0,0;	0,0
609,7363891601562;	476,75;	0,0;	0,0
609,7906494140625;	482,75;	0,0;	0,0
609,844970703125;	502,25;	0,0;	0,0
609,899169921875;	515,5;	0,0;	0,0
609,953369140625;	545,25;	0,0;	0,0
610,0076293945312;	615,75;	0,0;	0,0
610,0618286132812;	793,75;	0,0;	0,0
610,1160888671875;	1020,0;	0,0;	0,0
610,170166015625;	1141,75;	0,0;	0,0
610,224365234375;	959,0;	0,0;	0,0
610,2785034179688;	757,75;	0,0;	0,0
610,3327026367188;	604,25;	0,0;	0,0
610,3867797851562;	487,0;	0,0;	0,0
610,4408569335938;	499,75;	0,0;	0,0
610,4949340820312;	486,0;	0,0;	0,0
610,549072265625;	512,75;	0,0;	0,0
610,6030883789062;	513,5;	0,0;	0,0
610,6571044921875;	509,0;	0,0;	0,0
610,7111206054688;	518,75;	0,0;	0,0
610,7650756835938;	502,5;	0,0;	0,0
610,819091796875;	490,25;	0,0;	0,0
610,8731079101562;	519,75;	0,0;	0,0
610,9270629882812;	546,5;	0,0;	0,0
610,98095703125;	523,25;	0,0;	0,0
611,034912109375;	507,25;	0,0;	0,0
611,0887451171875;	466,5;	0,0;	0,0
611,1427001953125;	472,25;	0,0;	0,0
611,1965942382812;	512,25;	0,0;	0,0
611,2503662109375;	469,5;	0,0;	0,0
611,30419921875;	490,5;	0,0;	0,0
611,3580322265625;	505,75;	0,0;	0,0
611,411865234375;	499,0;	0,0;	0,0
611,4656982421875;	527,0;	0,0;	0,0
611,5194702148438;	493,25;	0,0;	0,0
611,5731811523438;	494,75;	0,0;	0,0
611,626953125;	524,75;	0,0;	0,0
611,6806640625;	506,5;	0,0;	0,0
611,734375;	505,0;	0,0;	0,0
611,7880859375;	464,5;	0,0;	0,0
611,8417358398438;	520,75;	0,0;	0,0
611,8953857421875;	582,75;	0,0;	0,0
611,9490356445312;	654,75;	0,0;	0,0
612,002685546875;	932,5;	0,0;	0,0
612,0562744140625;	1324,75;	0,0;	0,0
612,1099243164062;	1284,75;	0,0;	0,0
612,1635131835938;	930,75;	0,0;	0,0
612,2171020507812;	597,25;	0,0;	0,0
612,2705688476562;	541,75;	0,0;	0,0
612,3241577148438;	511,75;	0,0;	0,0
612,3776245117188;	506,75;	0,0;	0,0
612,4310913085938;	462,75;	0,0;	0,0
612,484619140625;	500,0;	0,0;	0,0
612,5380859375;	504,25;	0,0;	0,0
612,591552734375;	519,25;	0,0;	0,0
612,64501953125;	523,25;	0,0;	0,0
612,6983642578125;	531,25;	0,0;	0,0
612,7518310546875;	488,0;	0,0;	0,0
612,80517578125;	503,0;	0,0;	0,0
612,8585205078125;	515,0;	0,0;	0,0
612,9119262695312;	490,0;	0,0;	0,0
612,9652709960938;	480,5;	0,0;	0,0
613,0185546875;	512,5;	0,0;	0,0
613,0718383789062;	519,0;	0,0;	0,0
613,1251220703125;	459,5;	0,0;	0,0
613,1784057617188;	493,5;	0,0;	0,0
613,2317504882812;	490,75;	0,0;	0,0
613,2849731445312;	487,75;	0,0;	0,0
613,338134765625;	521,5;	0,0;	0,0
613,391357421875;	553,25;	0,0;	0,0
613,4445190429688;	698,75;	0,0;	0,0
613,4977416992188;	887,75;	0,0;	0,0
613,5509033203125;	936,25;	0,0;	0,0
613,6040649414062;	892,75;	0,0;	0,0
613,6572265625;	766,0;	0,0;	0,0
613,7102661132812;	609,25;	0,0;	0,0
613,7633666992188;	531,25;	0,0;	0,0
613,8164672851562;	474,5;	0,0;	0,0
613,8695068359375;	531,75;	0,0;	0,0
613,922607421875;	569,5;	0,0;	0,0
613,9755859375;	687,5;	0,0;	0,0
614,028564453125;	688,5;	0,0;	0,0
614,0816040039062;	670,75;	0,0;	0,0
614,1346435546875;	537,25;	0,0;	0,0
614,1875610351562;	532,25;	0,0;	0,0
614,2405395507812;	504,75;	0,0;	0,0
614,2933959960938;	484,75;	0,0;	0,0
614,3463745117188;	514,75;	0,0;	0,0
614,3992919921875;	506,0;	0,0;	0,0
614,4521484375;	498,5;	0,0;	0,0
614,5050048828125;	455,75;	0,0;	0,0
614,5578002929688;	506,25;	0,0;	0,0
614,6106567382812;	542,75;	0,0;	0,0
614,6635131835938;	504,5;	0,0;	0,0
614,7163696289062;	504,75;	0,0;	0,0
614,7691040039062;	511,75;	0,0;	0,0
614,8218994140625;	500,0;	0,0;	0,0
614,8746337890625;	496,75;	0,0;	0,0
614,9273681640625;	500,25;	0,0;	0,0
614,9801025390625;	529,25;	0,0;	0,0
615,0327758789062;	518,25;	0,0;	0,0
615,0855102539062;	513,0;	0,0;	0,0
615,1381225585938;	543,75;	0,0;	0,0
615,1908569335938;	540,5;	0,0;	0,0
615,2434692382812;	611,5;	0,0;	0,0
615,2960815429688;	652,0;	0,0;	0,0
615,3486938476562;	601,0;	0,0;	0,0
615,4012451171875;	574,75;	0,0;	0,0
615,453857421875;	544,25;	0,0;	0,0
615,5064697265625;	531,25;	0,0;	0,0
615,5589599609375;	563,0;	0,0;	0,0
615,6114501953125;	589,5;	0,0;	0,0
615,6640014648438;	606,75;	0,0;	0,0
615,7164306640625;	604,5;	0,0;	0,0
615,7689819335938;	646,5;	0,0;	0,0
615,8214111328125;	668,5;	0,0;	0,0
615,8738403320312;	773,25;	0,0;	0,0
615,9263305664062;	971,75;	0,0;	0,0
615,9786987304688;	1264,25;	0,0;	0,0
616,0310668945312;	1762,75;	0,0;	0,0
616,08349609375;	1937,25;	0,0;	0,0
616,1358642578125;	1411,5;	0,0;	0,0
616,1881713867188;	900,25;	0,0;	0,0
616,2405395507812;	706,5;	0,0;	0,0
616,2928466796875;	617,25;	0,0;	0,0
616,3450927734375;	631,0;	0,0;	0,0
616,3974609375;	614,25;	0,0;	0,0
616,4496459960938;	596,0;	0,0;	0,0
616,501953125;	614,25;	0,0;	0,0
616,5540771484375;	623,5;	0,0;	0,0
616,6063842773438;	617,5;	0,0;	0,0
616,6585693359375;	622,5;	0,0;	0,0
616,7107543945312;	631,0;	0,0;	0,0
616,7628784179688;	738,0;	0,0;	0,0
616,8150634765625;	770,25;	0,0;	0,0
616,8671264648438;	728,25;	0,0;	0,0
616,9193115234375;	656,75;	0,0;	0,0
616,971435546875;	604,5;	0,0;	0,0
617,0234985351562;	560,0;	0,0;	0,0
617,0756225585938;	552,5;	0,0;	0,0
617,1275634765625;	562,0;	0,0;	0,0
617,1796875;	521,25;	0,0;	0,0
617,231689453125;	569,25;	0,0;	0,0
617,28369140625;	561,0;	0,0;	0,0
617,3356323242188;	523,25;	0,0;	0,0
617,3876953125;	554,0;	0,0;	0,0
617,4395751953125;	539,0;	0,0;	0,0
617,4915161132812;	580,5;	0,0;	0,0
617,54345703125;	531,0;	0,0;	0,0
617,5953369140625;	545,5;	0,0;	0,0
617,6472778320312;	547,5;	0,0;	0,0
617,6990966796875;	556,0;	0,0;	0,0
617,7509765625;	560,25;	0,0;	0,0
617,8027954101562;	569,0;	0,0;	0,0
617,8546142578125;	568,25;	0,0;	0,0
617,906494140625;	588,25;	0,0;	0,0
617,9581909179688;	559,0;	0,0;	0,0
618,010009765625;	605,5;	0,0;	0,0
618,061767578125;	566,0;	0,0;	0,0
618,113525390625;	553,0;	0,0;	0,0
618,1652221679688;	571,5;	0,0;	0,0
618,2169799804688;	563,5;	0,0;	0,0
618,2686157226562;	581,25;	0,0;	0,0
618,3203125;	546,5;	0,0;	0,0
618,3720092773438;	566,0;	0,0;	0,0
618,423583984375;	523,75;	0,0;	0,0
618,4752197265625;	554,75;	0,0;	0,0
618,5267944335938;	539,5;	0,0;	0,0
618,5784301757812;	572,75;	0,0;	0,0
618,6300048828125;	499,0;	0,0;	0,0
618,681640625;	594,75;	0,0;	0,0
618,7330932617188;	556,25;	0,0;	0,0
618,7846069335938;	556,75;	0,0;	0,0
618,8361206054688;	586,75;	0,0;	0,0
618,8876342773438;	603,0;	0,0;	0,0
618,9391479492188;	689,25;	0,0;	0,0
618,9905395507812;	829,5;	0,0;	0,0
619,0419921875;	781,75;	0,0;	0,0
619,0933837890625;	613,75;	0,0;	0,0
619,1448364257812;	535,0;	0,0;	0,0
619,1962890625;	545,5;	0,0;	0,0
619,2476196289062;	549,75;	0,0;	0,0
619,2990112304688;	530,75;	0,0;	0,0
619,3504028320312;	521,25;	0,0;	0,0
619,4016723632812;	534,5;	0,0;	0,0
619,4530029296875;	536,75;	0,0;	0,0
619,5043334960938;	526,25;	0,0;	0,0
619,5555419921875;	537,25;	0,0;	0,0
619,6068115234375;	527,5;	0,0;	0,0
619,6580810546875;	503,25;	0,0;	0,0
619,7092895507812;	563,75;	0,0;	0,0
619,7605590820312;	525,0;	0,0;	0,0
619,8117065429688;	529,5;	0,0;	0,0
619,8628540039062;	550,25;	0,0;	0,0
619,9140014648438;	575,0;	0,0;	0,0
619,9652099609375;	536,75;	0,0;	0,0
620,0162963867188;	548,5;	0,0;	0,0
620,0675048828125;	519,25;	0,0;	0,0
620,1185913085938;	534,5;	0,0;	0,0
620,169677734375;	531,0;	0,0;	0,0
620,2206420898438;	544,25;	0,0;	0,0
620,2717895507812;	571,25;	0,0;	0,0
620,3228149414062;	507,5;	0,0;	0,0
620,373779296875;	529,75;	0,0;	0,0
620,4248046875;	559,0;	0,0;	0,0
620,4757690429688;	571,0;	0,0;	0,0
620,5267333984375;	555,5;	0,0;	0,0
620,5777587890625;	553,75;	0,0;	0,0
620,628662109375;	507,75;	0,0;	0,0
620,6795654296875;	543,0;	0,0;	0,0
620,73046875;	540,5;	0,0;	0,0
620,7813110351562;	540,75;	0,0;	0,0
620,8322143554688;	538,25;	0,0;	0,0
620,883056640625;	555,25;	0,0;	0,0
620,933837890625;	543,0;	0,0;	0,0
620,9846801757812;	521,25;	0,0;	0,0
621,0354614257812;	544,75;	0,0;	0,0
621,0863037109375;	545,5;	0,0;	0,0
621,1370849609375;	556,0;	0,0;	0,0
621,1878662109375;	519,5;	0,0;	0,0
621,2385864257812;	569,5;	0,0;	0,0
621,2892456054688;	535,25;	0,0;	0,0
621,3399047851562;	520,75;	0,0;	0,0
621,3906860351562;	546,0;	0,0;	0,0
621,4413452148438;	508,25;	0,0;	0,0
621,491943359375;	502,25;	0,0;	0,0
621,5426025390625;	498,5;	0,0;	0,0
621,5931396484375;	540,25;	0,0;	0,0
621,643798828125;	524,5;	0,0;	0,0
621,6943969726562;	568,0;	0,0;	0,0
621,7449951171875;	563,0;	0,0;	0,0
621,7955322265625;	569,25;	0,0;	0,0
621,8460693359375;	569,5;	0,0;	0,0
621,8965454101562;	536,75;	0,0;	0,0
621,9470825195312;	537,5;	0,0;	0,0
621,9976196289062;	546,0;	0,0;	0,0
622,0480346679688;	520,0;	0,0;	0,0
622,0985107421875;	530,75;	0,0;	0,0
622,1488647460938;	539,25;	0,0;	0,0
622,1993408203125;	573,25;	0,0;	0,0
622,249755859375;	536,5;	0,0;	0,0
622,3001708984375;	566,5;	0,0;	0,0
622,3505249023438;	537,75;	0,0;	0,0
622,4008178710938;	566,5;	0,0;	0,0
622,451171875;	518,5;	0,0;	0,0
622,5015258789062;	548,25;	0,0;	0,0
622,5518798828125;	574,75;	0,0;	0,0
622,6021118164062;	518,25;	0,0;	0,0
622,6524047851562;	531,25;	0,0;	0,0
622,7025756835938;	574,75;	0,0;	0,0
622,7528686523438;	574,0;	0,0;	0,0
622,8031616210938;	641,25;	0,0;	0,0
622,853271484375;	708,5;	0,0;	0,0
622,9034423828125;	888,0;	0,0;	0,0
622,95361328125;	906,25;	0,0;	0,0
623,0037841796875;	726,0;	0,0;	0,0
623,053955078125;	604,0;	0,0;	0,0
623,1040649414062;	581,25;	0,0;	0,0
623,1541137695312;	585,0;	0,0;	0,0
623,2042236328125;	578,5;	0,0;	0,0
623,2542724609375;	543,5;	0,0;	0,0
623,3043823242188;	557,5;	0,0;	0,0
623,3544311523438;	516,5;	0,0;	0,0
623,4044189453125;	570,0;	0,0;	0,0
623,4544677734375;	522,25;	0,0;	0,0
623,50439453125;	557,75;	0,0;	0,0
623,5543823242188;	526,75;	0,0;	0,0
623,6043701171875;	541,25;	0,0;	0,0
623,6543579101562;	538,5;	0,0;	0,0
623,7042236328125;	518,0;	0,0;	0,0
623,754150390625;	555,75;	0,0;	0,0
623,803955078125;	525,75;	0,0;	0,0
623,8538818359375;	526,5;	0,0;	0,0
623,9037475585938;	527,75;	0,0;	0,0
623,9535522460938;	536,5;	0,0;	0,0
624,0033569335938;	526,75;	0,0;	0,0
624,0531616210938;	514,75;	0,0;	0,0
624,1029663085938;	548,25;	0,0;	0,0
624,1527709960938;	512,75;	0,0;	0,0
624,2025756835938;	561,75;	0,0;	0,0
624,2522583007812;	538,75;	0,0;	0,0
624,3019409179688;	542,25;	0,0;	0,0
624,3516235351562;	559,0;	0,0;	0,0
624,4013671875;	586,25;	0,0;	0,0
624,4510498046875;	650,75;	0,0;	0,0
624,5006713867188;	674,25;	0,0;	0,0
624,5503540039062;	610,0;	0,0;	0,0
624,599853515625;	556,5;	0,0;	0,0
624,6495361328125;	537,0;	0,0;	0,0
624,6991577148438;	544,75;	0,0;	0,0
624,7486572265625;	527,5;	0,0;	0,0
624,7982177734375;	544,0;	0,0;	0,0
624,8477172851562;	515,25;	0,0;	0,0
624,8972778320312;	527,5;	0,0;	0,0
624,94677734375;	546,25;	0,0;	0,0
624,9962768554688;	584,75;	0,0;	0,0
625,0457763671875;	610,5;	0,0;	0,0
625,09521484375;	700,5;	0,0;	0,0
625,1446533203125;	714,75;	0,0;	0,0
625,194091796875;	576,0;	0,0;	0,0
625,2434692382812;	572,75;	0,0;	0,0
625,2928466796875;	533,75;	0,0;	0,0
625,3422241210938;	579,25;	0,0;	0,0
625,3914794921875;	525,25;	0,0;	0,0
625,44091796875;	570,0;	0,0;	0,0
625,490234375;	567,25;	0,0;	0,0
625,53955078125;	512,25;	0,0;	0,0
625,5888061523438;	509,5;	0,0;	0,0
625,6380615234375;	518,5;	0,0;	0,0
625,687255859375;	487,5;	0,0;	0,0
625,736572265625;	496,5;	0,0;	0,0
625,7858276367188;	0,0;	0,0;	0,0
