0.0	0.5
Integration time [ms]:	1.05
Averaging Nr. [scans]:1
Smoothing Nr. [pixels]:0
Data measured with spectrometer [name]:b'1703278U8'
Wave	;Sample	;Dark	;Reference	;Scope	
[nm]	;[counts]	;[counts]	;[counts]	
 
619,9722900390625;	406,25;	0,0;	0,0
620,0406494140625;	417,25;	0,0;	0,0
620,1089477539062;	399,0;	0,0;	0,0
620,17724609375;	374,0;	0,0;	0,0
620,2455444335938;	412,5;	0,0;	0,0
620,3137817382812;	364,5;	0,0;	0,0
620,382080078125;	389,5;	0,0;	0,0
620,4503173828125;	388,5;	0,0;	0,0
620,5185546875;	418,0;	0,0;	0,0
620,5867919921875;	416,75;	0,0;	0,0
620,6549072265625;	427,75;	0,0;	0,0
620,72314453125;	416,75;	0,0;	0,0
620,7913208007812;	417,25;	0,0;	0,0
620,8594360351562;	416,5;	0,0;	0,0
620,9276123046875;	437,25;	0,0;	0,0
620,9957885742188;	432,75;	0,0;	0,0
621,0638427734375;	437,75;	0,0;	0,0
621,1319580078125;	461,0;	0,0;	0,0
621,2000732421875;	446,25;	0,0;	0,0
621,2681274414062;	426,5;	0,0;	0,0
621,336181640625;	467,25;	0,0;	0,0
621,404296875;	445,25;	0,0;	0,0
621,4722900390625;	442,5;	0,0;	0,0
621,540283203125;	454,5;	0,0;	0,0
621,6083374023438;	460,75;	0,0;	0,0
621,67626953125;	454,5;	0,0;	0,0
621,7442626953125;	460,0;	0,0;	0,0
621,812255859375;	504,25;	0,0;	0,0
621,8801879882812;	488,25;	0,0;	0,0
621,9481201171875;	500,75;	0,0;	0,0
622,0159912109375;	512,25;	0,0;	0,0
622,0839233398438;	496,5;	0,0;	0,0
622,15185546875;	498,5;	0,0;	0,0
622,2196655273438;	492,0;	0,0;	0,0
622,2875366210938;	464,25;	0,0;	0,0
622,3554077148438;	483,5;	0,0;	0,0
622,4232177734375;	467,25;	0,0;	0,0
622,4910278320312;	510,25;	0,0;	0,0
622,5588989257812;	504,5;	0,0;	0,0
622,6266479492188;	509,5;	0,0;	0,0
622,6943969726562;	512,25;	0,0;	0,0
622,76220703125;	530,5;	0,0;	0,0
622,8298950195312;	520,5;	0,0;	0,0
622,8976440429688;	588,75;	0,0;	0,0
622,9653930664062;	634,75;	0,0;	0,0
623,0330810546875;	668,0;	0,0;	0,0
623,1007080078125;	779,25;	0,0;	0,0
623,1683349609375;	728,75;	0,0;	0,0
623,2360229492188;	581,25;	0,0;	0,0
623,3037109375;	646,25;	0,0;	0,0
623,3712768554688;	589,0;	0,0;	0,0
623,43896484375;	535,0;	0,0;	0,0
623,506591796875;	552,75;	0,0;	0,0
623,5740966796875;	502,0;	0,0;	0,0
623,6417236328125;	491,5;	0,0;	0,0
623,7092895507812;	527,5;	0,0;	0,0
623,7767944335938;	557,0;	0,0;	0,0
623,8443603515625;	562,75;	0,0;	0,0
623,9119262695312;	515,5;	0,0;	0,0
623,9793701171875;	515,75;	0,0;	0,0
624,046875;	525,75;	0,0;	0,0
624,1143798828125;	600,0;	0,0;	0,0
624,1818237304688;	529,75;	0,0;	0,0
624,249267578125;	527,75;	0,0;	0,0
624,316650390625;	530,75;	0,0;	0,0
624,3840942382812;	580,25;	0,0;	0,0
624,4515380859375;	561,5;	0,0;	0,0
624,518798828125;	552,25;	0,0;	0,0
624,5862426757812;	545,25;	0,0;	0,0
624,6536254882812;	589,75;	0,0;	0,0
624,7208862304688;	613,5;	0,0;	0,0
624,7882690429688;	575,75;	0,0;	0,0
624,8555908203125;	557,0;	0,0;	0,0
624,9228515625;	537,5;	0,0;	0,0
624,9901733398438;	522,25;	0,0;	0,0
625,0574951171875;	556,75;	0,0;	0,0
625,1246948242188;	576,25;	0,0;	0,0
625,1919555664062;	584,5;	0,0;	0,0
625,2592163085938;	641,75;	0,0;	0,0
625,3263549804688;	641,5;	0,0;	0,0
625,3936157226562;	568,75;	0,0;	0,0
625,4608154296875;	538,0;	0,0;	0,0
625,5279541015625;	528,75;	0,0;	0,0
625,5950927734375;	551,25;	0,0;	0,0
625,6622314453125;	504,75;	0,0;	0,0
625,7293701171875;	546,75;	0,0;	0,0
625,7965087890625;	516,0;	0,0;	0,0
625,8635864257812;	484,25;	0,0;	0,0
625,9306640625;	501,5;	0,0;	0,0
625,9977416992188;	516,25;	0,0;	0,0
626,0647583007812;	495,75;	0,0;	0,0
626,1318359375;	500,5;	0,0;	0,0
626,1989135742188;	483,0;	0,0;	0,0
626,265869140625;	456,25;	0,0;	0,0
626,3328857421875;	451,0;	0,0;	0,0
626,39990234375;	472,75;	0,0;	0,0
626,466796875;	514,25;	0,0;	0,0
626,5338134765625;	488,0;	0,0;	0,0
626,6007690429688;	520,0;	0,0;	0,0
626,6676635742188;	457,0;	0,0;	0,0
626,734619140625;	448,75;	0,0;	0,0
626,8014526367188;	489,0;	0,0;	0,0
626,8683471679688;	476,5;	0,0;	0,0
626,9352416992188;	464,0;	0,0;	0,0
627,0020141601562;	461,5;	0,0;	0,0
627,0689086914062;	443,25;	0,0;	0,0
627,1357421875;	467,0;	0,0;	0,0
627,2025756835938;	464,75;	0,0;	0,0
627,2694091796875;	442,5;	0,0;	0,0
627,3361206054688;	420,25;	0,0;	0,0
627,4028930664062;	456,5;	0,0;	0,0
627,4696655273438;	456,5;	0,0;	0,0
627,5364379882812;	465,25;	0,0;	0,0
627,6031494140625;	441,75;	0,0;	0,0
627,6697998046875;	468,5;	0,0;	0,0
627,7365112304688;	437,25;	0,0;	0,0
627,8031616210938;	422,25;	0,0;	0,0
627,869873046875;	436,0;	0,0;	0,0
627,9365234375;	449,75;	0,0;	0,0
628,0031127929688;	454,75;	0,0;	0,0
628,0697631835938;	425,0;	0,0;	0,0
628,1363525390625;	440,5;	0,0;	0,0
628,2030029296875;	423,0;	0,0;	0,0
628,26953125;	424,75;	0,0;	0,0
628,3361206054688;	420,25;	0,0;	0,0
628,4026489257812;	420,0;	0,0;	0,0
628,46923828125;	416,25;	0,0;	0,0
628,5357055664062;	414,0;	0,0;	0,0
628,6022338867188;	433,75;	0,0;	0,0
628,6687622070312;	426,5;	0,0;	0,0
628,7352294921875;	429,0;	0,0;	0,0
628,8016357421875;	401,5;	0,0;	0,0
628,8681640625;	438,5;	0,0;	0,0
628,9345703125;	442,75;	0,0;	0,0
629,0010375976562;	447,75;	0,0;	0,0
629,0673217773438;	430,5;	0,0;	0,0
629,1337890625;	414,75;	0,0;	0,0
629,2001953125;	425,75;	0,0;	0,0
629,2664794921875;	388,25;	0,0;	0,0
629,3328247070312;	408,25;	0,0;	0,0
629,3992309570312;	390,25;	0,0;	0,0
629,4655151367188;	406,25;	0,0;	0,0
629,5317993164062;	381,75;	0,0;	0,0
629,59814453125;	382,5;	0,0;	0,0
629,6643676757812;	410,0;	0,0;	0,0
629,7306518554688;	403,0;	0,0;	0,0
629,7969360351562;	403,0;	0,0;	0,0
629,8631591796875;	442,75;	0,0;	0,0
629,9293212890625;	409,25;	0,0;	0,0
629,9955444335938;	415,5;	0,0;	0,0
630,061767578125;	457,0;	0,0;	0,0
630,1278686523438;	494,0;	0,0;	0,0
630,194091796875;	523,75;	0,0;	0,0
630,26025390625;	485,5;	0,0;	0,0
630,3263549804688;	460,75;	0,0;	0,0
630,3924560546875;	399,0;	0,0;	0,0
630,45849609375;	381,5;	0,0;	0,0
630,524658203125;	394,75;	0,0;	0,0
630,5906982421875;	406,75;	0,0;	0,0
630,65673828125;	407,75;	0,0;	0,0
630,7228393554688;	374,0;	0,0;	0,0
630,7888793945312;	427,25;	0,0;	0,0
630,8548583984375;	392,25;	0,0;	0,0
630,9208984375;	375,75;	0,0;	0,0
630,98681640625;	371,25;	0,0;	0,0
631,0527954101562;	383,0;	0,0;	0,0
631,1187744140625;	360,5;	0,0;	0,0
631,1846923828125;	410,0;	0,0;	0,0
631,2506713867188;	424,25;	0,0;	0,0
631,3165893554688;	390,0;	0,0;	0,0
631,3824462890625;	411,5;	0,0;	0,0
631,4483032226562;	375,25;	0,0;	0,0
631,51416015625;	401,0;	0,0;	0,0
631,5800170898438;	421,5;	0,0;	0,0
631,6459350585938;	429,5;	0,0;	0,0
631,711669921875;	390,25;	0,0;	0,0
631,7775268554688;	445,0;	0,0;	0,0
631,8433227539062;	429,0;	0,0;	0,0
631,9090576171875;	421,75;	0,0;	0,0
631,974853515625;	406,75;	0,0;	0,0
632,0406494140625;	401,0;	0,0;	0,0
632,1063232421875;	424,5;	0,0;	0,0
632,1720581054688;	408,0;	0,0;	0,0
632,23779296875;	397,25;	0,0;	0,0
632,303466796875;	411,25;	0,0;	0,0
632,369140625;	391,0;	0,0;	0,0
632,4348754882812;	366,75;	0,0;	0,0
632,5004272460938;	358,5;	0,0;	0,0
632,5661010742188;	405,5;	0,0;	0,0
632,6317138671875;	389,5;	0,0;	0,0
632,6973266601562;	364,5;	0,0;	0,0
632,762939453125;	389,25;	0,0;	0,0
632,8284912109375;	379,25;	0,0;	0,0
632,89404296875;	368,75;	0,0;	0,0
632,9595947265625;	367,75;	0,0;	0,0
633,025146484375;	366,75;	0,0;	0,0
633,0906372070312;	389,0;	0,0;	0,0
633,1561889648438;	390,5;	0,0;	0,0
633,2216186523438;	372,25;	0,0;	0,0
633,287109375;	375,25;	0,0;	0,0
633,3526000976562;	353,25;	0,0;	0,0
633,4180297851562;	364,0;	0,0;	0,0
633,4835205078125;	419,75;	0,0;	0,0
633,5488891601562;	418,5;	0,0;	0,0
633,6142578125;	439,0;	0,0;	0,0
633,6796875;	452,5;	0,0;	0,0
633,7450561523438;	440,0;	0,0;	0,0
633,8103637695312;	396,75;	0,0;	0,0
633,8757934570312;	377,25;	0,0;	0,0
633,9410400390625;	398,0;	0,0;	0,0
634,00634765625;	385,25;	0,0;	0,0
634,0717163085938;	365,5;	0,0;	0,0
634,136962890625;	374,75;	0,0;	0,0
634,2022094726562;	374,0;	0,0;	0,0
634,2675170898438;	371,0;	0,0;	0,0
634,3327026367188;	380,5;	0,0;	0,0
634,39794921875;	383,25;	0,0;	0,0
634,4631958007812;	366,25;	0,0;	0,0
634,5283813476562;	378,0;	0,0;	0,0
634,5935668945312;	367,5;	0,0;	0,0
634,6587524414062;	355,25;	0,0;	0,0
634,7238159179688;	379,5;	0,0;	0,0
634,7890014648438;	379,0;	0,0;	0,0
634,8541870117188;	365,5;	0,0;	0,0
634,919189453125;	342,25;	0,0;	0,0
634,9843139648438;	395,0;	0,0;	0,0
635,0493774414062;	384,75;	0,0;	0,0
635,114501953125;	357,5;	0,0;	0,0
635,1795654296875;	386,25;	0,0;	0,0
635,2445068359375;	357,0;	0,0;	0,0
635,3095703125;	336,0;	0,0;	0,0
635,3746337890625;	365,75;	0,0;	0,0
635,4395751953125;	365,25;	0,0;	0,0
635,5045776367188;	387,0;	0,0;	0,0
635,5695190429688;	353,0;	0,0;	0,0
635,6344604492188;	363,5;	0,0;	0,0
635,6994018554688;	336,25;	0,0;	0,0
635,7642822265625;	353,5;	0,0;	0,0
635,8292236328125;	368,5;	0,0;	0,0
635,8941040039062;	385,5;	0,0;	0,0
635,9590454101562;	375,25;	0,0;	0,0
636,0238037109375;	377,0;	0,0;	0,0
636,0886840820312;	369,75;	0,0;	0,0
636,1535034179688;	393,25;	0,0;	0,0
636,2183227539062;	351,25;	0,0;	0,0
636,2831420898438;	337,0;	0,0;	0,0
636,3478393554688;	389,0;	0,0;	0,0
636,4126586914062;	355,75;	0,0;	0,0
636,4774169921875;	357,5;	0,0;	0,0
636,5421142578125;	353,0;	0,0;	0,0
636,60693359375;	363,5;	0,0;	0,0
636,6716918945312;	387,0;	0,0;	0,0
636,736328125;	364,25;	0,0;	0,0
636,801025390625;	335,25;	0,0;	0,0
636,86572265625;	338,5;	0,0;	0,0
636,9302978515625;	366,75;	0,0;	0,0
636,9949951171875;	371,0;	0,0;	0,0
637,0596313476562;	381,0;	0,0;	0,0
637,1242065429688;	350,5;	0,0;	0,0
637,1888427734375;	354,25;	0,0;	0,0
637,2533569335938;	365,75;	0,0;	0,0
637,31787109375;	349,0;	0,0;	0,0
637,3824462890625;	398,0;	0,0;	0,0
637,4469604492188;	353,25;	0,0;	0,0
637,5115356445312;	357,5;	0,0;	0,0
637,5760498046875;	342,75;	0,0;	0,0
637,6405029296875;	351,5;	0,0;	0,0
637,7050170898438;	360,0;	0,0;	0,0
637,7694702148438;	346,5;	0,0;	0,0
637,8339233398438;	351,25;	0,0;	0,0
637,8983764648438;	346,25;	0,0;	0,0
637,9627685546875;	348,75;	0,0;	0,0
638,027099609375;	348,5;	0,0;	0,0
638,091552734375;	360,25;	0,0;	0,0
638,1559448242188;	348,5;	0,0;	0,0
638,2202758789062;	349,0;	0,0;	0,0
638,28466796875;	349,25;	0,0;	0,0
638,3489990234375;	359,25;	0,0;	0,0
638,4132690429688;	377,5;	0,0;	0,0
638,4776000976562;	366,25;	0,0;	0,0
638,5418701171875;	332,5;	0,0;	0,0
638,6061401367188;	339,5;	0,0;	0,0
638,6703491210938;	367,0;	0,0;	0,0
638,7345581054688;	353,25;	0,0;	0,0
638,798828125;	364,5;	0,0;	0,0
638,8630981445312;	346,25;	0,0;	0,0
638,9271850585938;	356,25;	0,0;	0,0
638,9913940429688;	341,0;	0,0;	0,0
639,0556030273438;	362,0;	0,0;	0,0
639,1197509765625;	357,25;	0,0;	0,0
639,1838989257812;	352,5;	0,0;	0,0
639,248046875;	379,0;	0,0;	0,0
639,3121337890625;	437,5;	0,0;	0,0
639,376220703125;	463,5;	0,0;	0,0
639,4403076171875;	540,0;	0,0;	0,0
639,5043334960938;	353,75;	0,0;	0,0
639,568359375;	351,5;	0,0;	0,0
639,6324462890625;	331,25;	0,0;	0,0
639,6964721679688;	337,75;	0,0;	0,0
639,7604370117188;	368,0;	0,0;	0,0
639,8244018554688;	366,25;	0,0;	0,0
639,888427734375;	415,75;	0,0;	0,0
639,952392578125;	503,0;	0,0;	0,0
640,0162963867188;	593,75;	0,0;	0,0
640,0802612304688;	628,5;	0,0;	0,0
640,1442260742188;	440,0;	0,0;	0,0
640,2080078125;	358,75;	0,0;	0,0
640,27197265625;	346,5;	0,0;	0,0
640,3358154296875;	370,75;	0,0;	0,0
640,399658203125;	379,25;	0,0;	0,0
640,4635620117188;	362,5;	0,0;	0,0
640,52734375;	345,75;	0,0;	0,0
640,5911865234375;	341,25;	0,0;	0,0
640,6549682617188;	359,75;	0,0;	0,0
640,7188110351562;	364,0;	0,0;	0,0
640,782470703125;	391,75;	0,0;	0,0
640,8462524414062;	403,75;	0,0;	0,0
640,9099731445312;	388,5;	0,0;	0,0
640,9736938476562;	358,75;	0,0;	0,0
641,0374755859375;	360,5;	0,0;	0,0
641,10107421875;	427,75;	0,0;	0,0
641,164794921875;	459,25;	0,0;	0,0
641,2284545898438;	520,75;	0,0;	0,0
641,2920532226562;	415,75;	0,0;	0,0
641,3557739257812;	385,75;	0,0;	0,0
641,4193725585938;	335,25;	0,0;	0,0
641,4829711914062;	363,5;	0,0;	0,0
641,5465698242188;	358,75;	0,0;	0,0
641,610107421875;	329,75;	0,0;	0,0
641,6737060546875;	354,75;	0,0;	0,0
641,7372436523438;	352,0;	0,0;	0,0
641,80078125;	358,25;	0,0;	0,0
641,8642578125;	351,75;	0,0;	0,0
641,9277954101562;	366,75;	0,0;	0,0
641,9912109375;	391,75;	0,0;	0,0
642,0546875;	429,5;	0,0;	0,0
642,1182250976562;	410,0;	0,0;	0,0
642,1815795898438;	460,25;	0,0;	0,0
642,2450561523438;	378,75;	0,0;	0,0
642,3084716796875;	355,25;	0,0;	0,0
642,371826171875;	348,75;	0,0;	0,0
642,4352416992188;	343,5;	0,0;	0,0
642,4985961914062;	324,5;	0,0;	0,0
642,5618896484375;	350,25;	0,0;	0,0
642,625244140625;	353,5;	0,0;	0,0
642,6885986328125;	339,75;	0,0;	0,0
642,7518920898438;	328,25;	0,0;	0,0
642,815185546875;	343,25;	0,0;	0,0
642,8784790039062;	330,5;	0,0;	0,0
642,9417114257812;	375,75;	0,0;	0,0
643,0050048828125;	392,25;	0,0;	0,0
643,0682373046875;	407,5;	0,0;	0,0
643,1314086914062;	454,0;	0,0;	0,0
643,1946411132812;	396,25;	0,0;	0,0
643,2577514648438;	391,75;	0,0;	0,0
643,3209838867188;	352,0;	0,0;	0,0
643,3841552734375;	345,25;	0,0;	0,0
643,447265625;	353,5;	0,0;	0,0
643,5104370117188;	353,0;	0,0;	0,0
643,5735473632812;	335,25;	0,0;	0,0
643,6365966796875;	340,5;	0,0;	0,0
643,69970703125;	343,5;	0,0;	0,0
643,7628173828125;	402,25;	0,0;	0,0
643,8258056640625;	511,5;	0,0;	0,0
643,888916015625;	672,0;	0,0;	0,0
643,9519653320312;	820,25;	0,0;	0,0
644,0148315429688;	536,75;	0,0;	0,0
644,077880859375;	372,5;	0,0;	0,0
644,140869140625;	348,75;	0,0;	0,0
644,2037963867188;	333,0;	0,0;	0,0
644,2667846679688;	357,5;	0,0;	0,0
644,3297119140625;	353,25;	0,0;	0,0
644,3926391601562;	362,75;	0,0;	0,0
644,45556640625;	354,75;	0,0;	0,0
644,5184326171875;	379,0;	0,0;	0,0
644,5812377929688;	341,75;	0,0;	0,0
644,6441650390625;	396,5;	0,0;	0,0
644,7069702148438;	346,75;	0,0;	0,0
644,7698364257812;	345,75;	0,0;	0,0
644,8327026367188;	352,5;	0,0;	0,0
644,8953857421875;	373,75;	0,0;	0,0
644,9581909179688;	367,75;	0,0;	0,0
645,02099609375;	425,75;	0,0;	0,0
645,083740234375;	374,25;	0,0;	0,0
645,146484375;	370,75;	0,0;	0,0
645,209228515625;	353,75;	0,0;	0,0
645,2719116210938;	350,25;	0,0;	0,0
645,3345947265625;	357,75;	0,0;	0,0
645,3972778320312;	318,5;	0,0;	0,0
645,4599609375;	361,25;	0,0;	0,0
645,5225830078125;	381,25;	0,0;	0,0
645,585205078125;	356,0;	0,0;	0,0
645,6478881835938;	404,75;	0,0;	0,0
645,71044921875;	358,25;	0,0;	0,0
645,7730102539062;	375,0;	0,0;	0,0
645,8356323242188;	352,5;	0,0;	0,0
645,898193359375;	349,5;	0,0;	0,0
645,960693359375;	350,75;	0,0;	0,0
646,0232543945312;	355,5;	0,0;	0,0
646,0858154296875;	383,0;	0,0;	0,0
646,1482543945312;	429,75;	0,0;	0,0
646,2107543945312;	543,75;	0,0;	0,0
646,273193359375;	677,75;	0,0;	0,0
646,335693359375;	598,75;	0,0;	0,0
646,3980712890625;	362,5;	0,0;	0,0
646,4605712890625;	333,25;	0,0;	0,0
646,5228881835938;	357,75;	0,0;	0,0
646,5853881835938;	373,75;	0,0;	0,0
646,647705078125;	354,75;	0,0;	0,0
646,7100830078125;	317,75;	0,0;	0,0
646,7724609375;	363,5;	0,0;	0,0
646,834716796875;	360,75;	0,0;	0,0
646,8970947265625;	358,25;	0,0;	0,0
646,9594116210938;	353,25;	0,0;	0,0
647,0216064453125;	364,25;	0,0;	0,0
647,083984375;	357,75;	0,0;	0,0
647,146240234375;	374,75;	0,0;	0,0
647,2084350585938;	411,5;	0,0;	0,0
647,2706909179688;	344,0;	0,0;	0,0
647,3329467773438;	347,0;	0,0;	0,0
647,3950805664062;	324,75;	0,0;	0,0
647,4573364257812;	336,25;	0,0;	0,0
647,5194702148438;	353,75;	0,0;	0,0
647,5816040039062;	377,5;	0,0;	0,0
647,6437377929688;	325,0;	0,0;	0,0
647,7058715820312;	345,75;	0,0;	0,0
647,7680053710938;	349,5;	0,0;	0,0
647,830078125;	343,25;	0,0;	0,0
647,89208984375;	342,75;	0,0;	0,0
647,9541625976562;	359,5;	0,0;	0,0
648,0162353515625;	357,25;	0,0;	0,0
648,0783081054688;	372,75;	0,0;	0,0
648,1403198242188;	360,5;	0,0;	0,0
648,2023315429688;	384,75;	0,0;	0,0
648,2642822265625;	394,25;	0,0;	0,0
648,3262939453125;	343,0;	0,0;	0,0
648,3882446289062;	359,25;	0,0;	0,0
648,4501342773438;	392,25;	0,0;	0,0
648,5120849609375;	398,25;	0,0;	0,0
648,5740356445312;	339,0;	0,0;	0,0
648,6358642578125;	364,0;	0,0;	0,0
648,6978149414062;	340,0;	0,0;	0,0
648,7596435546875;	379,5;	0,0;	0,0
648,8214721679688;	393,5;	0,0;	0,0
648,8833618164062;	350,0;	0,0;	0,0
648,9451293945312;	352,5;	0,0;	0,0
649,0069580078125;	373,5;	0,0;	0,0
649,0687866210938;	362,75;	0,0;	0,0
649,1305541992188;	367,75;	0,0;	0,0
649,1923217773438;	353,5;	0,0;	0,0
649,2540893554688;	416,75;	0,0;	0,0
649,3157348632812;	439,75;	0,0;	0,0
649,3775024414062;	621,75;	0,0;	0,0
649,439208984375;	657,75;	0,0;	0,0
649,5009155273438;	733,75;	0,0;	0,0
649,5626220703125;	705,25;	0,0;	0,0
649,624267578125;	465,25;	0,0;	0,0
649,6858520507812;	430,25;	0,0;	0,0
649,7474975585938;	412,25;	0,0;	0,0
649,8091430664062;	365,75;	0,0;	0,0
649,8707275390625;	336,5;	0,0;	0,0
649,9322509765625;	406,5;	0,0;	0,0
649,9938354492188;	360,5;	0,0;	0,0
650,055419921875;	366,5;	0,0;	0,0
650,116943359375;	360,25;	0,0;	0,0
650,1784057617188;	380,25;	0,0;	0,0
650,239990234375;	364,75;	0,0;	0,0
650,3014526367188;	363,75;	0,0;	0,0
650,3629150390625;	367,75;	0,0;	0,0
650,4244384765625;	360,0;	0,0;	0,0
650,48583984375;	344,5;	0,0;	0,0
650,5472412109375;	322,75;	0,0;	0,0
650,608642578125;	347,75;	0,0;	0,0
650,6701049804688;	351,75;	0,0;	0,0
650,7314453125;	348,5;	0,0;	0,0
650,7928466796875;	355,75;	0,0;	0,0
650,8541870117188;	367,75;	0,0;	0,0
650,91552734375;	376,25;	0,0;	0,0
650,9768676757812;	347,25;	0,0;	0,0
651,0382080078125;	360,25;	0,0;	0,0
651,0994262695312;	344,75;	0,0;	0,0
651,1607666015625;	345,25;	0,0;	0,0
651,2219848632812;	326,0;	0,0;	0,0
651,2832641601562;	361,0;	0,0;	0,0
651,344482421875;	348,5;	0,0;	0,0
651,4056396484375;	323,75;	0,0;	0,0
651,4669189453125;	350,0;	0,0;	0,0
651,5281372070312;	339,0;	0,0;	0,0
651,5892333984375;	329,5;	0,0;	0,0
651,6504516601562;	351,25;	0,0;	0,0
651,7116088867188;	354,25;	0,0;	0,0
651,7726440429688;	350,0;	0,0;	0,0
651,8338623046875;	343,5;	0,0;	0,0
651,8949584960938;	345,75;	0,0;	0,0
651,9559936523438;	367,0;	0,0;	0,0
652,0170288085938;	349,5;	0,0;	0,0
652,078125;	336,5;	0,0;	0,0
652,13916015625;	327,75;	0,0;	0,0
652,2001953125;	363,75;	0,0;	0,0
652,2611083984375;	355,0;	0,0;	0,0
652,3221435546875;	349,25;	0,0;	0,0
652,3831176757812;	349,25;	0,0;	0,0
652,4440307617188;	339,25;	0,0;	0,0
652,5050048828125;	357,75;	0,0;	0,0
652,5659790039062;	334,5;	0,0;	0,0
652,6268920898438;	355,0;	0,0;	0,0
652,6878051757812;	337,0;	0,0;	0,0
652,7487182617188;	365,0;	0,0;	0,0
652,8095092773438;	348,75;	0,0;	0,0
652,8704223632812;	353,25;	0,0;	0,0
652,9312744140625;	363,5;	0,0;	0,0
652,9920654296875;	344,5;	0,0;	0,0
653,0528564453125;	347,5;	0,0;	0,0
653,1137084960938;	360,25;	0,0;	0,0
653,1744384765625;	339,0;	0,0;	0,0
653,2351684570312;	359,25;	0,0;	0,0
653,2958984375;	336,75;	0,0;	0,0
653,3566284179688;	338,75;	0,0;	0,0
653,4174194335938;	328,5;	0,0;	0,0
653,4780883789062;	355,0;	0,0;	0,0
653,5387573242188;	357,5;	0,0;	0,0
653,5994873046875;	359,25;	0,0;	0,0
653,6600341796875;	354,25;	0,0;	0,0
653,720703125;	330,25;	0,0;	0,0
653,7813720703125;	350,5;	0,0;	0,0
653,8419799804688;	363,25;	0,0;	0,0
653,9025268554688;	363,0;	0,0;	0,0
653,9631958007812;	382,5;	0,0;	0,0
654,0237426757812;	352,0;	0,0;	0,0
654,084228515625;	374,25;	0,0;	0,0
654,1448364257812;	363,0;	0,0;	0,0
654,205322265625;	401,5;	0,0;	0,0
654,2658081054688;	377,25;	0,0;	0,0
654,3262939453125;	379,5;	0,0;	0,0
654,3867797851562;	371,0;	0,0;	0,0
654,447265625;	347,0;	0,0;	0,0
654,5076904296875;	404,25;	0,0;	0,0
654,568115234375;	427,0;	0,0;	0,0
654,6285400390625;	483,25;	0,0;	0,0
654,6889038085938;	495,0;	0,0;	0,0
654,7493286132812;	397,0;	0,0;	0,0
654,8096923828125;	419,0;	0,0;	0,0
654,8699951171875;	398,5;	0,0;	0,0
654,9303588867188;	411,0;	0,0;	0,0
654,99072265625;	388,5;	0,0;	0,0
655,0509643554688;	435,0;	0,0;	0,0
655,111328125;	452,0;	0,0;	0,0
655,1715698242188;	425,75;	0,0;	0,0
655,2317504882812;	453,5;	0,0;	0,0
655,2920532226562;	455,75;	0,0;	0,0
655,3522338867188;	482,5;	0,0;	0,0
655,4124755859375;	467,5;	0,0;	0,0
655,4727172851562;	497,25;	0,0;	0,0
655,5328369140625;	510,25;	0,0;	0,0
655,593017578125;	515,75;	0,0;	0,0
655,6531982421875;	536,25;	0,0;	0,0
655,7133178710938;	538,25;	0,0;	0,0
655,7734375;	598,5;	0,0;	0,0
655,8335571289062;	575,0;	0,0;	0,0
655,8936157226562;	618,75;	0,0;	0,0
655,9537353515625;	698,5;	0,0;	0,0
656,0138549804688;	720,5;	0,0;	0,0
656,0738525390625;	811,75;	0,0;	0,0
656,1339111328125;	810,5;	0,0;	0,0
656,1939086914062;	889,25;	0,0;	0,0
656,2538452148438;	917,75;	0,0;	0,0
656,3139038085938;	965,25;	0,0;	0,0
656,373779296875;	933,25;	0,0;	0,0
656,4337768554688;	884,75;	0,0;	0,0
656,4937133789062;	827,5;	0,0;	0,0
656,5537109375;	776,25;	0,0;	0,0
656,613525390625;	728,0;	0,0;	0,0
656,6734619140625;	708,5;	0,0;	0,0
656,7333374023438;	646,75;	0,0;	0,0
656,793212890625;	636,25;	0,0;	0,0
656,8530883789062;	610,0;	0,0;	0,0
656,9129028320312;	588,5;	0,0;	0,0
656,97265625;	584,75;	0,0;	0,0
657,032470703125;	585,75;	0,0;	0,0
657,0922241210938;	515,5;	0,0;	0,0
657,1520385742188;	546,5;	0,0;	0,0
657,2118530273438;	496,25;	0,0;	0,0
657,2715454101562;	519,75;	0,0;	0,0
657,3312377929688;	479,25;	0,0;	0,0
657,3909912109375;	456,75;	0,0;	0,0
657,45068359375;	444,75;	0,0;	0,0
657,5103149414062;	453,0;	0,0;	0,0
657,5700073242188;	422,75;	0,0;	0,0
657,629638671875;	428,0;	0,0;	0,0
657,6892700195312;	438,75;	0,0;	0,0
657,7488403320312;	406,75;	0,0;	0,0
657,8085327148438;	389,0;	0,0;	0,0
657,8681030273438;	415,75;	0,0;	0,0
657,9276733398438;	409,0;	0,0;	0,0
657,9871826171875;	375,75;	0,0;	0,0
658,0467529296875;	402,25;	0,0;	0,0
658,106201171875;	406,5;	0,0;	0,0
658,165771484375;	392,25;	0,0;	0,0
658,2252807617188;	402,5;	0,0;	0,0
658,2847290039062;	378,25;	0,0;	0,0
658,3441772460938;	382,0;	0,0;	0,0
658,4036865234375;	360,75;	0,0;	0,0
658,4630737304688;	370,5;	0,0;	0,0
658,5225830078125;	346,25;	0,0;	0,0
658,5819702148438;	332,5;	0,0;	0,0
658,6412963867188;	376,0;	0,0;	0,0
658,70068359375;	357,25;	0,0;	0,0
658,760009765625;	376,75;	0,0;	0,0
658,8193359375;	342,5;	0,0;	0,0
658,8787231445312;	358,75;	0,0;	0,0
658,93798828125;	366,0;	0,0;	0,0
658,997314453125;	339,0;	0,0;	0,0
659,0565795898438;	362,75;	0,0;	0,0
659,1157836914062;	377,75;	0,0;	0,0
659,1751098632812;	392,75;	0,0;	0,0
659,234375;	398,0;	0,0;	0,0
659,2935180664062;	464,0;	0,0;	0,0
659,3527221679688;	464,25;	0,0;	0,0
659,4119262695312;	390,25;	0,0;	0,0
659,4710693359375;	357,25;	0,0;	0,0
659,5302124023438;	374,0;	0,0;	0,0
659,5894165039062;	365,0;	0,0;	0,0
659,6484985351562;	339,5;	0,0;	0,0
659,7076416015625;	340,5;	0,0;	0,0
659,7666625976562;	340,0;	0,0;	0,0
659,8257446289062;	361,5;	0,0;	0,0
659,8848266601562;	349,5;	0,0;	0,0
659,94384765625;	354,25;	0,0;	0,0
660,0029296875;	369,75;	0,0;	0,0
660,0619506835938;	347,5;	0,0;	0,0
660,1209106445312;	314,25;	0,0;	0,0
660,179931640625;	362,25;	0,0;	0,0
660,2389526367188;	346,0;	0,0;	0,0
660,2978515625;	350,25;	0,0;	0,0
660,3568115234375;	328,75;	0,0;	0,0
660,415771484375;	329,0;	0,0;	0,0
660,474609375;	346,0;	0,0;	0,0
660,5335693359375;	344,0;	0,0;	0,0
660,5924072265625;	340,0;	0,0;	0,0
660,6512451171875;	316,25;	0,0;	0,0
660,7101440429688;	317,5;	0,0;	0,0
660,7689208984375;	321,5;	0,0;	0,0
660,8277587890625;	337,5;	0,0;	0,0
660,8865966796875;	320,5;	0,0;	0,0
660,9453125;	330,0;	0,0;	0,0
661,004150390625;	348,25;	0,0;	0,0
661,0628662109375;	355,75;	0,0;	0,0
661,12158203125;	314,75;	0,0;	0,0
661,1802978515625;	343,75;	0,0;	0,0
661,2390747070312;	318,5;	0,0;	0,0
661,2976684570312;	352,5;	0,0;	0,0
661,3564453125;	300,75;	0,0;	0,0
661,4151000976562;	318,75;	0,0;	0,0
661,4737548828125;	332,25;	0,0;	0,0
661,5323486328125;	297,25;	0,0;	0,0
661,5909423828125;	334,75;	0,0;	0,0
661,6495361328125;	327,25;	0,0;	0,0
661,7081298828125;	327,75;	0,0;	0,0
661,7667236328125;	307,5;	0,0;	0,0
661,8252563476562;	328,0;	0,0;	0,0
661,8837890625;	311,75;	0,0;	0,0
661,9422607421875;	313,5;	0,0;	0,0
662,0008544921875;	343,25;	0,0;	0,0
662,0593872070312;	319,25;	0,0;	0,0
662,1177978515625;	324,0;	0,0;	0,0
662,17626953125;	327,75;	0,0;	0,0
662,2346801757812;	337,25;	0,0;	0,0
662,2930908203125;	319,0;	0,0;	0,0
662,3515625;	307,5;	0,0;	0,0
662,4099731445312;	330,0;	0,0;	0,0
662,4683227539062;	311,25;	0,0;	0,0
662,5267333984375;	331,5;	0,0;	0,0
662,5850830078125;	324,5;	0,0;	0,0
662,6433715820312;	332,75;	0,0;	0,0
662,7017211914062;	324,5;	0,0;	0,0
662,760009765625;	317,0;	0,0;	0,0
662,8182983398438;	323,25;	0,0;	0,0
662,8765869140625;	304,75;	0,0;	0,0
662,9348754882812;	332,75;	0,0;	0,0
662,9930419921875;	326,25;	0,0;	0,0
663,0513305664062;	335,5;	0,0;	0,0
663,1094970703125;	300,5;	0,0;	0,0
663,167724609375;	311,75;	0,0;	0,0
663,2259521484375;	325,75;	0,0;	0,0
663,2840576171875;	347,5;	0,0;	0,0
663,3421630859375;	340,25;	0,0;	0,0
663,400390625;	365,25;	0,0;	0,0
663,4584350585938;	347,25;	0,0;	0,0
663,5166015625;	363,75;	0,0;	0,0
663,5746459960938;	336,75;	0,0;	0,0
663,6327514648438;	333,5;	0,0;	0,0
663,6907348632812;	332,5;	0,0;	0,0
663,7488403320312;	309,5;	0,0;	0,0
663,806884765625;	331,75;	0,0;	0,0
663,8648681640625;	322,25;	0,0;	0,0
663,9229125976562;	320,25;	0,0;	0,0
663,9808349609375;	310,75;	0,0;	0,0
664,038818359375;	326,25;	0,0;	0,0
664,0966796875;	301,25;	0,0;	0,0
664,1546630859375;	349,5;	0,0;	0,0
664,2125854492188;	321,0;	0,0;	0,0
664,2705078125;	334,75;	0,0;	0,0
664,328369140625;	338,5;	0,0;	0,0
664,38623046875;	344,5;	0,0;	0,0
664,444091796875;	324,25;	0,0;	0,0
664,501953125;	344,5;	0,0;	0,0
664,5597534179688;	356,75;	0,0;	0,0
664,6175537109375;	365,25;	0,0;	0,0
664,6753540039062;	337,25;	0,0;	0,0
664,733154296875;	324,0;	0,0;	0,0
664,7908935546875;	338,25;	0,0;	0,0
664,8486938476562;	339,25;	0,0;	0,0
664,9064331054688;	322,0;	0,0;	0,0
664,964111328125;	354,5;	0,0;	0,0
665,0217895507812;	359,5;	0,0;	0,0
665,0794677734375;	316,5;	0,0;	0,0
665,1371459960938;	329,0;	0,0;	0,0
665,1947631835938;	358,0;	0,0;	0,0
665,2523803710938;	386,75;	0,0;	0,0
665,3099975585938;	314,75;	0,0;	0,0
665,36767578125;	333,75;	0,0;	0,0
665,4252319335938;	338,5;	0,0;	0,0
665,4827880859375;	349,5;	0,0;	0,0
665,5404052734375;	351,25;	0,0;	0,0
665,597900390625;	317,75;	0,0;	0,0
665,6554565429688;	359,25;	0,0;	0,0
665,7130126953125;	344,25;	0,0;	0,0
665,7704467773438;	317,75;	0,0;	0,0
665,8279418945312;	363,5;	0,0;	0,0
665,8854370117188;	346,75;	0,0;	0,0
665,9428100585938;	340,0;	0,0;	0,0
666,0003051757812;	332,0;	0,0;	0,0
666,0576782226562;	340,75;	0,0;	0,0
666,1150512695312;	329,75;	0,0;	0,0
666,1724853515625;	325,75;	0,0;	0,0
666,2298583984375;	337,0;	0,0;	0,0
666,2871704101562;	360,0;	0,0;	0,0
666,3446044921875;	364,25;	0,0;	0,0
666,4019165039062;	370,25;	0,0;	0,0
666,4591674804688;	366,25;	0,0;	0,0
666,5165405273438;	359,5;	0,0;	0,0
666,57373046875;	328,0;	0,0;	0,0
666,6310424804688;	329,0;	0,0;	0,0
666,6882934570312;	350,5;	0,0;	0,0
666,7454833984375;	342,5;	0,0;	0,0
666,802734375;	341,25;	0,0;	0,0
666,8599243164062;	344,5;	0,0;	0,0
666,9171142578125;	308,0;	0,0;	0,0
666,9742431640625;	343,75;	0,0;	0,0
667,0314331054688;	321,75;	0,0;	0,0
667,0885620117188;	316,0;	0,0;	0,0
667,1456909179688;	351,25;	0,0;	0,0
667,2026977539062;	319,0;	0,0;	0,0
667,2598876953125;	309,25;	0,0;	0,0
667,3169555664062;	352,75;	0,0;	0,0
667,3739624023438;	332,0;	0,0;	0,0
667,4310302734375;	344,0;	0,0;	0,0
667,488037109375;	316,0;	0,0;	0,0
667,5451049804688;	316,0;	0,0;	0,0
667,6021118164062;	344,25;	0,0;	0,0
667,6591186523438;	360,5;	0,0;	0,0
667,7160034179688;	416,5;	0,0;	0,0
667,77294921875;	462,0;	0,0;	0,0
667,8299560546875;	511,5;	0,0;	0,0
667,8867797851562;	359,5;	0,0;	0,0
667,9437255859375;	323,75;	0,0;	0,0
668,0006103515625;	319,25;	0,0;	0,0
668,0574951171875;	317,5;	0,0;	0,0
668,1143798828125;	335,75;	0,0;	0,0
668,171142578125;	309,25;	0,0;	0,0
668,2279663085938;	317,25;	0,0;	0,0
668,2847900390625;	339,5;	0,0;	0,0
668,341552734375;	329,75;	0,0;	0,0
668,3983764648438;	319,25;	0,0;	0,0
668,4552001953125;	314,0;	0,0;	0,0
668,5118408203125;	335,5;	0,0;	0,0
668,568603515625;	334,25;	0,0;	0,0
668,6253662109375;	333,75;	0,0;	0,0
668,6819458007812;	321,5;	0,0;	0,0
668,7387084960938;	338,0;	0,0;	0,0
668,79541015625;	314,75;	0,0;	0,0
668,8519897460938;	321,5;	0,0;	0,0
668,90869140625;	315,25;	0,0;	0,0
668,9652709960938;	303,25;	0,0;	0,0
669,0218505859375;	316,5;	0,0;	0,0
669,0784301757812;	315,75;	0,0;	0,0
669,1350708007812;	327,75;	0,0;	0,0
669,1915893554688;	304,0;	0,0;	0,0
669,2481689453125;	339,0;	0,0;	0,0
669,3046264648438;	314,75;	0,0;	0,0
669,3611450195312;	302,75;	0,0;	0,0
669,4176635742188;	335,75;	0,0;	0,0
669,47412109375;	327,0;	0,0;	0,0
669,5305786132812;	335,5;	0,0;	0,0
669,5870971679688;	354,25;	0,0;	0,0
669,6434326171875;	310,75;	0,0;	0,0
669,6998901367188;	320,25;	0,0;	0,0
669,7562866210938;	300,5;	0,0;	0,0
669,8126220703125;	323,75;	0,0;	0,0
669,8690795898438;	346,0;	0,0;	0,0
669,9254150390625;	319,75;	0,0;	0,0
669,981689453125;	335,5;	0,0;	0,0
670,0380249023438;	306,75;	0,0;	0,0
670,0943603515625;	342,75;	0,0;	0,0
670,150634765625;	340,5;	0,0;	0,0
670,2069091796875;	355,25;	0,0;	0,0
670,2631225585938;	361,75;	0,0;	0,0
670,3193969726562;	349,25;	0,0;	0,0
670,3756713867188;	346,25;	0,0;	0,0
670,4318237304688;	422,25;	0,0;	0,0
670,488037109375;	462,0;	0,0;	0,0
670,544189453125;	587,75;	0,0;	0,0
670,600341796875;	865,0;	0,0;	0,0
670,656494140625;	1627,0;	0,0;	0,0
670,7127075195312;	3966,0;	0,0;	0,0
670,768798828125;	8714,5;	0,0;	0,0
670,8248291015625;	6684,25;	0,0;	0,0
670,8809814453125;	1324,0;	0,0;	0,0
670,93701171875;	501,0;	0,0;	0,0
670,9930419921875;	363,0;	0,0;	0,0
671,0491333007812;	405,75;	0,0;	0,0
671,1051025390625;	385,5;	0,0;	0,0
671,1611328125;	381,5;	0,0;	0,0
671,2171020507812;	353,5;	0,0;	0,0
671,2730712890625;	377,0;	0,0;	0,0
671,3291015625;	336,75;	0,0;	0,0
671,3849487304688;	350,75;	0,0;	0,0
671,44091796875;	339,25;	0,0;	0,0
671,496826171875;	311,75;	0,0;	0,0
671,5526733398438;	344,0;	0,0;	0,0
671,6085815429688;	345,75;	0,0;	0,0
671,6644897460938;	341,25;	0,0;	0,0
671,7202758789062;	355,5;	0,0;	0,0
671,7761840820312;	404,25;	0,0;	0,0
671,8319702148438;	375,5;	0,0;	0,0
671,8876953125;	350,75;	0,0;	0,0
671,9435424804688;	333,0;	0,0;	0,0
671,9993286132812;	343,25;	0,0;	0,0
672,0550537109375;	322,5;	0,0;	0,0
672,1107788085938;	333,75;	0,0;	0,0
672,16650390625;	325,25;	0,0;	0,0
672,22216796875;	319,5;	0,0;	0,0
672,2778930664062;	325,0;	0,0;	0,0
672,3335571289062;	357,25;	0,0;	0,0
672,3892211914062;	313,25;	0,0;	0,0
672,4448852539062;	310,5;	0,0;	0,0
672,50048828125;	360,25;	0,0;	0,0
672,5560913085938;	338,5;	0,0;	0,0
672,6116943359375;	350,5;	0,0;	0,0
672,6672973632812;	349,5;	0,0;	0,0
672,7228393554688;	325,75;	0,0;	0,0
672,7783813476562;	320,0;	0,0;	0,0
672,8338623046875;	332,25;	0,0;	0,0
672,889404296875;	330,25;	0,0;	0,0
672,9449462890625;	305,25;	0,0;	0,0
673,0003662109375;	307,25;	0,0;	0,0
673,0558471679688;	319,0;	0,0;	0,0
673,111328125;	335,5;	0,0;	0,0
673,166748046875;	345,5;	0,0;	0,0
673,22216796875;	320,0;	0,0;	0,0
673,277587890625;	334,5;	0,0;	0,0
673,3329467773438;	341,0;	0,0;	0,0
673,3883666992188;	345,75;	0,0;	0,0
673,4436645507812;	328,75;	0,0;	0,0
673,4990234375;	350,0;	0,0;	0,0
673,5543823242188;	331,75;	0,0;	0,0
673,6096801757812;	314,0;	0,0;	0,0
673,6649780273438;	336,25;	0,0;	0,0
673,72021484375;	323,75;	0,0;	0,0
673,7755126953125;	334,0;	0,0;	0,0
673,8307495117188;	314,75;	0,0;	0,0
673,885986328125;	310,0;	0,0;	0,0
673,9412231445312;	331,5;	0,0;	0,0
673,9963989257812;	292,25;	0,0;	0,0
674,051513671875;	327,0;	0,0;	0,0
674,106689453125;	309,25;	0,0;	0,0
674,161865234375;	315,5;	0,0;	0,0
674,2169799804688;	329,75;	0,0;	0,0
674,2721557617188;	324,5;	0,0;	0,0
674,3272705078125;	294,0;	0,0;	0,0
674,38232421875;	329,0;	0,0;	0,0
674,4373779296875;	321,75;	0,0;	0,0
674,4924926757812;	334,75;	0,0;	0,0
674,5474853515625;	334,25;	0,0;	0,0
674,6025390625;	311,0;	0,0;	0,0
674,6575317382812;	328,5;	0,0;	0,0
674,7124633789062;	335,75;	0,0;	0,0
674,7674560546875;	334,75;	0,0;	0,0
674,8224487304688;	322,0;	0,0;	0,0
674,8773803710938;	295,5;	0,0;	0,0
674,9323120117188;	332,75;	0,0;	0,0
674,9871826171875;	359,75;	0,0;	0,0
675,0420532226562;	343,25;	0,0;	0,0
675,0969848632812;	304,0;	0,0;	0,0
675,15185546875;	344,25;	0,0;	0,0
675,2066650390625;	309,25;	0,0;	0,0
675,2615356445312;	334,75;	0,0;	0,0
675,3162841796875;	352,0;	0,0;	0,0
675,3711547851562;	349,0;	0,0;	0,0
675,4259033203125;	332,0;	0,0;	0,0
675,4806518554688;	342,0;	0,0;	0,0
675,535400390625;	335,25;	0,0;	0,0
675,5902099609375;	331,0;	0,0;	0,0
675,6448364257812;	323,5;	0,0;	0,0
675,6996459960938;	317,0;	0,0;	0,0
675,7543334960938;	321,5;	0,0;	0,0
675,8088989257812;	322,0;	0,0;	0,0
675,8636474609375;	295,5;	0,0;	0,0
675,9182739257812;	315,25;	0,0;	0,0
675,9728393554688;	315,0;	0,0;	0,0
676,0274658203125;	307,25;	0,0;	0,0
676,0820922851562;	316,5;	0,0;	0,0
676,1366577148438;	313,75;	0,0;	0,0
676,1912231445312;	319,0;	0,0;	0,0
676,2457275390625;	324,0;	0,0;	0,0
676,30029296875;	304,0;	0,0;	0,0
676,3547973632812;	321,25;	0,0;	0,0
676,4092407226562;	308,75;	0,0;	0,0
676,4637451171875;	309,0;	0,0;	0,0
676,5182495117188;	323,5;	0,0;	0,0
676,5726928710938;	315,5;	0,0;	0,0
676,6271362304688;	317,0;	0,0;	0,0
676,6815795898438;	315,75;	0,0;	0,0
676,7359619140625;	321,5;	0,0;	0,0
676,790283203125;	318,75;	0,0;	0,0
676,8447265625;	318,25;	0,0;	0,0
676,8990478515625;	320,5;	0,0;	0,0
676,9534301757812;	317,25;	0,0;	0,0
677,0076904296875;	322,25;	0,0;	0,0
677,06201171875;	316,25;	0,0;	0,0
677,1163330078125;	287,0;	0,0;	0,0
677,1705322265625;	314,75;	0,0;	0,0
677,2247924804688;	300,0;	0,0;	0,0
677,279052734375;	293,0;	0,0;	0,0
677,333251953125;	306,0;	0,0;	0,0
677,3875122070312;	336,5;	0,0;	0,0
677,4417114257812;	301,25;	0,0;	0,0
677,4957885742188;	311,0;	0,0;	0,0
677,550048828125;	285,5;	0,0;	0,0
677,6041870117188;	316,0;	0,0;	0,0
677,6583251953125;	304,75;	0,0;	0,0
677,71240234375;	316,0;	0,0;	0,0
677,7665405273438;	324,5;	0,0;	0,0
677,8206176757812;	310,75;	0,0;	0,0
677,8746948242188;	317,5;	0,0;	0,0
677,9287109375;	329,75;	0,0;	0,0
677,9827270507812;	326,0;	0,0;	0,0
678,0367431640625;	291,25;	0,0;	0,0
678,0906982421875;	305,75;	0,0;	0,0
678,144775390625;	306,25;	0,0;	0,0
678,19873046875;	313,75;	0,0;	0,0
678,2526245117188;	294,0;	0,0;	0,0
678,3065795898438;	288,5;	0,0;	0,0
678,3605346679688;	323,25;	0,0;	0,0
678,4144287109375;	316,5;	0,0;	0,0
678,4683227539062;	315,75;	0,0;	0,0
678,5221557617188;	307,0;	0,0;	0,0
678,5759887695312;	298,25;	0,0;	0,0
678,6298828125;	314,5;	0,0;	0,0
678,6837158203125;	322,75;	0,0;	0,0
678,7374877929688;	301,75;	0,0;	0,0
678,791259765625;	296,5;	0,0;	0,0
678,8450927734375;	317,0;	0,0;	0,0
678,8988037109375;	310,25;	0,0;	0,0
678,9525756835938;	311,25;	0,0;	0,0
679,0062866210938;	313,75;	0,0;	0,0
679,0599975585938;	273,25;	0,0;	0,0
679,1137084960938;	325,5;	0,0;	0,0
679,1674194335938;	308,0;	0,0;	0,0
679,2210083007812;	322,0;	0,0;	0,0
679,2747192382812;	294,75;	0,0;	0,0
679,3283081054688;	298,5;	0,0;	0,0
679,3819580078125;	311,25;	0,0;	0,0
679,435546875;	341,0;	0,0;	0,0
679,4890747070312;	298,0;	0,0;	0,0
679,542724609375;	308,25;	0,0;	0,0
679,5962524414062;	314,25;	0,0;	0,0
679,6497192382812;	325,5;	0,0;	0,0
679,7032470703125;	297,5;	0,0;	0,0
679,7568359375;	303,0;	0,0;	0,0
679,810302734375;	290,5;	0,0;	0,0
679,86376953125;	307,0;	0,0;	0,0
679,9171752929688;	289,25;	0,0;	0,0
679,9706420898438;	328,75;	0,0;	0,0
680,0240478515625;	311,0;	0,0;	0,0
680,0775146484375;	308,25;	0,0;	0,0
680,130859375;	283,0;	0,0;	0,0
680,1842651367188;	318,0;	0,0;	0,0
680,237548828125;	317,75;	0,0;	0,0
680,2909545898438;	262,0;	0,0;	0,0
680,3442993164062;	313,0;	0,0;	0,0
680,3975830078125;	294,5;	0,0;	0,0
680,4508666992188;	299,5;	0,0;	0,0
680,504150390625;	301,25;	0,0;	0,0
680,557373046875;	314,5;	0,0;	0,0
680,6106567382812;	309,0;	0,0;	0,0
680,6639404296875;	325,25;	0,0;	0,0
680,717041015625;	310,75;	0,0;	0,0
680,7703247070312;	286,5;	0,0;	0,0
680,8234252929688;	330,25;	0,0;	0,0
680,8766479492188;	311,0;	0,0;	0,0
680,9297485351562;	303,5;	0,0;	0,0
680,9829711914062;	336,75;	0,0;	0,0
681,0360107421875;	342,25;	0,0;	0,0
681,0891723632812;	301,5;	0,0;	0,0
681,1421508789062;	331,5;	0,0;	0,0
681,1953125;	304,75;	0,0;	0,0
681,2483520507812;	292,75;	0,0;	0,0
681,3013305664062;	288,0;	0,0;	0,0
681,3544311523438;	304,75;	0,0;	0,0
681,4074096679688;	300,25;	0,0;	0,0
681,4603271484375;	320,75;	0,0;	0,0
681,5133056640625;	285,75;	0,0;	0,0
681,5662841796875;	292,5;	0,0;	0,0
681,6192626953125;	298,25;	0,0;	0,0
681,6721801757812;	293,5;	0,0;	0,0
681,72509765625;	306,75;	0,0;	0,0
681,7779541015625;	303,25;	0,0;	0,0
681,8308715820312;	310,75;	0,0;	0,0
681,8837280273438;	316,5;	0,0;	0,0
681,9365234375;	301,25;	0,0;	0,0
681,9893798828125;	307,75;	0,0;	0,0
682,0421142578125;	311,0;	0,0;	0,0
682,0949096679688;	309,75;	0,0;	0,0
682,1477661132812;	309,25;	0,0;	0,0
682,2005004882812;	320,5;	0,0;	0,0
682,2532958984375;	300,75;	0,0;	0,0
682,3059692382812;	302,5;	0,0;	0,0
682,358642578125;	318,25;	0,0;	0,0
682,411376953125;	289,5;	0,0;	0,0
682,4640502929688;	288,25;	0,0;	0,0
682,5167236328125;	292,75;	0,0;	0,0
682,5693359375;	297,25;	0,0;	0,0
682,6220092773438;	305,0;	0,0;	0,0
682,674560546875;	319,75;	0,0;	0,0
682,7272338867188;	309,0;	0,0;	0,0
682,77978515625;	337,25;	0,0;	0,0
682,8323974609375;	319,5;	0,0;	0,0
682,8849487304688;	334,5;	0,0;	0,0
682,9373779296875;	315,75;	0,0;	0,0
682,989990234375;	310,5;	0,0;	0,0
683,04248046875;	324,5;	0,0;	0,0
683,0949096679688;	326,75;	0,0;	0,0
683,1473999023438;	285,75;	0,0;	0,0
683,1998901367188;	314,25;	0,0;	0,0
683,2523193359375;	317,25;	0,0;	0,0
683,3047485351562;	296,25;	0,0;	0,0
683,357177734375;	298,25;	0,0;	0,0
683,4094848632812;	271,75;	0,0;	0,0
683,4619140625;	295,0;	0,0;	0,0
683,5142822265625;	310,0;	0,0;	0,0
683,5665893554688;	286,5;	0,0;	0,0
683,6189575195312;	297,0;	0,0;	0,0
683,6712646484375;	310,25;	0,0;	0,0
683,7235107421875;	294,0;	0,0;	0,0
683,7757568359375;	320,5;	0,0;	0,0
683,8280029296875;	321,75;	0,0;	0,0
683,8803100585938;	306,5;	0,0;	0,0
683,9325561523438;	314,5;	0,0;	0,0
683,9846801757812;	314,5;	0,0;	0,0
684,0369262695312;	327,25;	0,0;	0,0
684,0891723632812;	354,25;	0,0;	0,0
684,1412353515625;	315,75;	0,0;	0,0
684,1934204101562;	313,75;	0,0;	0,0
684,2455444335938;	323,75;	0,0;	0,0
684,2976684570312;	321,5;	0,0;	0,0
684,3497314453125;	327,0;	0,0;	0,0
684,40185546875;	307,25;	0,0;	0,0
684,453857421875;	300,25;	0,0;	0,0
684,5059204101562;	304,75;	0,0;	0,0
684,5579833984375;	309,25;	0,0;	0,0
684,6099853515625;	299,5;	0,0;	0,0
684,6619873046875;	328,5;	0,0;	0,0
684,7139892578125;	286,5;	0,0;	0,0
684,7659301757812;	289,75;	0,0;	0,0
684,8179321289062;	306,5;	0,0;	0,0
684,869873046875;	287,25;	0,0;	0,0
684,9216918945312;	305,25;	0,0;	0,0
684,9736328125;	294,25;	0,0;	0,0
685,0255126953125;	302,25;	0,0;	0,0
685,077392578125;	277,75;	0,0;	0,0
685,1292724609375;	333,5;	0,0;	0,0
685,1810302734375;	313,0;	0,0;	0,0
685,23291015625;	304,0;	0,0;	0,0
685,2847290039062;	314,5;	0,0;	0,0
685,3364868164062;	311,25;	0,0;	0,0
685,3882446289062;	319,25;	0,0;	0,0
685,4400024414062;	291,5;	0,0;	0,0
685,4917602539062;	324,0;	0,0;	0,0
685,5435180664062;	346,25;	0,0;	0,0
685,5951538085938;	328,0;	0,0;	0,0
685,6468505859375;	328,0;	0,0;	0,0
685,6985473632812;	341,75;	0,0;	0,0
685,750244140625;	323,0;	0,0;	0,0
685,8018798828125;	316,5;	0,0;	0,0
685,8534545898438;	289,0;	0,0;	0,0
685,905029296875;	316,5;	0,0;	0,0
685,9566650390625;	274,75;	0,0;	0,0
686,0082397460938;	321,0;	0,0;	0,0
686,059814453125;	302,25;	0,0;	0,0
686,111328125;	301,0;	0,0;	0,0
686,162841796875;	304,75;	0,0;	0,0
686,21435546875;	305,25;	0,0;	0,0
686,265869140625;	308,0;	0,0;	0,0
686,3173828125;	302,5;	0,0;	0,0
686,3687744140625;	301,0;	0,0;	0,0
686,4202270507812;	326,75;	0,0;	0,0
686,4716186523438;	284,5;	0,0;	0,0
686,5230712890625;	292,5;	0,0;	0,0
686,574462890625;	311,75;	0,0;	0,0
686,6258544921875;	290,5;	0,0;	0,0
686,6771850585938;	263,75;	0,0;	0,0
686,7285766601562;	288,25;	0,0;	0,0
686,7799072265625;	307,75;	0,0;	0,0
686,8312377929688;	306,25;	0,0;	0,0
686,882568359375;	288,75;	0,0;	0,0
686,9337768554688;	311,25;	0,0;	0,0
686,9850463867188;	302,0;	0,0;	0,0
687,0363159179688;	328,25;	0,0;	0,0
687,0875244140625;	321,5;	0,0;	0,0
687,1387329101562;	288,75;	0,0;	0,0
687,1900024414062;	294,0;	0,0;	0,0
687,2410888671875;	294,0;	0,0;	0,0
687,2922973632812;	293,0;	0,0;	0,0
687,3434448242188;	299,75;	0,0;	0,0
687,3945922851562;	320,75;	0,0;	0,0
687,4457397460938;	293,5;	0,0;	0,0
687,4968872070312;	307,5;	0,0;	0,0
687,5479125976562;	312,0;	0,0;	0,0
687,5989379882812;	273,75;	0,0;	0,0
687,6500244140625;	313,25;	0,0;	0,0
687,7010498046875;	294,75;	0,0;	0,0
687,7520751953125;	295,75;	0,0;	0,0
687,8030395507812;	307,5;	0,0;	0,0
687,8540649414062;	307,25;	0,0;	0,0
687,905029296875;	320,5;	0,0;	0,0
687,9559936523438;	320,25;	0,0;	0,0
688,0069580078125;	301,25;	0,0;	0,0
688,0579223632812;	311,25;	0,0;	0,0
688,1087646484375;	319,5;	0,0;	0,0
688,1596069335938;	286,25;	0,0;	0,0
688,2105102539062;	297,0;	0,0;	0,0
688,2613525390625;	287,0;	0,0;	0,0
688,3121948242188;	308,5;	0,0;	0,0
688,3630981445312;	320,25;	0,0;	0,0
688,4138793945312;	308,0;	0,0;	0,0
688,464599609375;	282,0;	0,0;	0,0
688,515380859375;	285,0;	0,0;	0,0
688,566162109375;	332,25;	0,0;	0,0
688,6168823242188;	308,5;	0,0;	0,0
688,6676025390625;	298,0;	0,0;	0,0
688,7183227539062;	277,5;	0,0;	0,0
688,76904296875;	299,0;	0,0;	0,0
688,8196411132812;	303,0;	0,0;	0,0
688,870361328125;	295,75;	0,0;	0,0
688,9210205078125;	281,0;	0,0;	0,0
688,9716186523438;	280,25;	0,0;	0,0
689,0222778320312;	301,5;	0,0;	0,0
689,0728149414062;	286,0;	0,0;	0,0
689,1234130859375;	294,75;	0,0;	0,0
689,1740112304688;	292,0;	0,0;	0,0
689,2245483398438;	299,0;	0,0;	0,0
689,2750244140625;	303,75;	0,0;	0,0
689,3255615234375;	305,5;	0,0;	0,0
689,3759765625;	274,25;	0,0;	0,0
689,426513671875;	312,0;	0,0;	0,0
689,4769897460938;	275,5;	0,0;	0,0
689,5274658203125;	304,75;	0,0;	0,0
689,5778198242188;	270,25;	0,0;	0,0
689,6282958984375;	314,5;	0,0;	0,0
689,6786499023438;	295,5;	0,0;	0,0
689,7290649414062;	290,25;	0,0;	0,0
689,7794799804688;	302,75;	0,0;	0,0
689,8297119140625;	304,0;	0,0;	0,0
689,8800659179688;	292,25;	0,0;	0,0
689,930419921875;	304,75;	0,0;	0,0
689,9806518554688;	275,5;	0,0;	0,0
690,031005859375;	327,75;	0,0;	0,0
690,081298828125;	281,5;	0,0;	0,0
690,1314697265625;	290,5;	0,0;	0,0
690,1817626953125;	312,75;	0,0;	0,0
690,23193359375;	303,25;	0,0;	0,0
690,2821655273438;	274,25;	0,0;	0,0
690,3323364257812;	286,75;	0,0;	0,0
690,3825073242188;	304,75;	0,0;	0,0
690,4326782226562;	285,25;	0,0;	0,0
690,4827880859375;	293,5;	0,0;	0,0
690,5328369140625;	290,0;	0,0;	0,0
690,5829467773438;	312,75;	0,0;	0,0
690,6331176757812;	280,25;	0,0;	0,0
690,6831665039062;	304,5;	0,0;	0,0
690,7332153320312;	314,75;	0,0;	0,0
690,7832641601562;	305,5;	0,0;	0,0
690,833251953125;	310,75;	0,0;	0,0
690,8832397460938;	306,5;	0,0;	0,0
690,9332885742188;	317,25;	0,0;	0,0
690,9832153320312;	317,75;	0,0;	0,0
691,033203125;	372,75;	0,0;	0,0
691,0830078125;	422,25;	0,0;	0,0
691,1329956054688;	395,25;	0,0;	0,0
691,1829223632812;	315,5;	0,0;	0,0
691,2328491210938;	338,75;	0,0;	0,0
691,2826538085938;	299,75;	0,0;	0,0
691,33251953125;	299,0;	0,0;	0,0
691,38232421875;	301,0;	0,0;	0,0
691,43212890625;	308,75;	0,0;	0,0
691,4819946289062;	302,25;	0,0;	0,0
691,53173828125;	307,75;	0,0;	0,0
691,58154296875;	296,5;	0,0;	0,0
691,6312866210938;	296,0;	0,0;	0,0
691,6810302734375;	347,25;	0,0;	0,0
691,730712890625;	318,0;	0,0;	0,0
691,7804565429688;	292,25;	0,0;	0,0
691,8301391601562;	299,75;	0,0;	0,0
691,8798217773438;	283,0;	0,0;	0,0
691,929443359375;	304,5;	0,0;	0,0
691,9790649414062;	298,5;	0,0;	0,0
692,0286865234375;	285,0;	0,0;	0,0
692,0783081054688;	311,75;	0,0;	0,0
692,1278686523438;	287,5;	0,0;	0,0
692,177490234375;	311,75;	0,0;	0,0
692,2269897460938;	271,25;	0,0;	0,0
692,2765502929688;	317,5;	0,0;	0,0
692,3261108398438;	313,25;	0,0;	0,0
692,3755493164062;	295,25;	0,0;	0,0
692,4251098632812;	284,25;	0,0;	0,0
692,474609375;	298,0;	0,0;	0,0
692,5240478515625;	295,75;	0,0;	0,0
692,5734252929688;	301,5;	0,0;	0,0
692,6229248046875;	301,0;	0,0;	0,0
692,6723022460938;	299,5;	0,0;	0,0
692,7216796875;	293,5;	0,0;	0,0
692,7711181640625;	293,25;	0,0;	0,0
692,8203735351562;	260,25;	0,0;	0,0
692,8697509765625;	287,5;	0,0;	0,0
692,9190673828125;	312,25;	0,0;	0,0
692,9683837890625;	280,75;	0,0;	0,0
693,0177001953125;	281,0;	0,0;	0,0
693,06689453125;	302,5;	0,0;	0,0
693,1162109375;	309,75;	0,0;	0,0
693,1654663085938;	310,5;	0,0;	0,0
693,214599609375;	290,75;	0,0;	0,0
693,2638549804688;	308,0;	0,0;	0,0
693,3130493164062;	322,25;	0,0;	0,0
693,3622436523438;	325,75;	0,0;	0,0
693,4114379882812;	305,25;	0,0;	0,0
693,4605712890625;	298,75;	0,0;	0,0
693,5096435546875;	272,0;	0,0;	0,0
693,5587768554688;	329,5;	0,0;	0,0
693,6078491210938;	320,25;	0,0;	0,0
693,6568603515625;	342,0;	0,0;	0,0
693,7059936523438;	348,75;	0,0;	0,0
693,7550659179688;	390,5;	0,0;	0,0
693,8040771484375;	471,75;	0,0;	0,0
693,85302734375;	541,5;	0,0;	0,0
693,9020385742188;	481,0;	0,0;	0,0
693,9510498046875;	355,75;	0,0;	0,0
694,0;	322,75;	0,0;	0,0
694,0488891601562;	308,25;	0,0;	0,0
694,0978393554688;	296,25;	0,0;	0,0
694,1467895507812;	313,0;	0,0;	0,0
694,1956176757812;	283,75;	0,0;	0,0
694,2445068359375;	302,25;	0,0;	0,0
694,2933959960938;	294,5;	0,0;	0,0
694,3421630859375;	319,0;	0,0;	0,0
694,3910522460938;	304,0;	0,0;	0,0
694,4398803710938;	306,75;	0,0;	0,0
694,4886474609375;	338,5;	0,0;	0,0
694,5374145507812;	321,25;	0,0;	0,0
694,5862426757812;	267,0;	0,0;	0,0
694,6349487304688;	307,0;	0,0;	0,0
694,6836547851562;	317,25;	0,0;	0,0
694,7323608398438;	295,75;	0,0;	0,0
694,7810668945312;	295,5;	0,0;	0,0
694,8297729492188;	300,0;	0,0;	0,0
694,8784790039062;	326,0;	0,0;	0,0
694,927001953125;	293,5;	0,0;	0,0
694,9756469726562;	305,25;	0,0;	0,0
695,0242309570312;	319,75;	0,0;	0,0
695,0728759765625;	325,5;	0,0;	0,0
695,1213989257812;	312,5;	0,0;	0,0
695,1699829101562;	315,25;	0,0;	0,0
695,2185668945312;	294,0;	0,0;	0,0
695,26708984375;	333,25;	0,0;	0,0
695,3155517578125;	298,75;	0,0;	0,0
695,3640747070312;	299,25;	0,0;	0,0
695,41259765625;	312,0;	0,0;	0,0
695,4609985351562;	284,5;	0,0;	0,0
695,5094604492188;	288,5;	0,0;	0,0
695,557861328125;	291,25;	0,0;	0,0
695,6062622070312;	308,5;	0,0;	0,0
695,6547241210938;	301,0;	0,0;	0,0
695,7030639648438;	284,25;	0,0;	0,0
695,7514038085938;	294,75;	0,0;	0,0
695,7997436523438;	301,0;	0,0;	0,0
695,8480224609375;	304,25;	0,0;	0,0
695,8963623046875;	302,5;	0,0;	0,0
695,9447021484375;	295,0;	0,0;	0,0
695,992919921875;	282,75;	0,0;	0,0
696,0411987304688;	266,5;	0,0;	0,0
696,0894775390625;	294,0;	0,0;	0,0
696,1376342773438;	308,75;	0,0;	0,0
696,1859130859375;	316,0;	0,0;	0,0
696,234130859375;	276,25;	0,0;	0,0
696,2822265625;	290,25;	0,0;	0,0
696,3304443359375;	306,0;	0,0;	0,0
696,3785400390625;	287,25;	0,0;	0,0
696,4266357421875;	298,5;	0,0;	0,0
696,4747924804688;	282,5;	0,0;	0,0
696,5228881835938;	294,5;	0,0;	0,0
696,5709838867188;	309,0;	0,0;	0,0
696,6190185546875;	314,5;	0,0;	0,0
696,6670532226562;	282,75;	0,0;	0,0
696,715087890625;	301,25;	0,0;	0,0
696,7631225585938;	291,75;	0,0;	0,0
696,8110961914062;	293,5;	0,0;	0,0
696,8590698242188;	316,75;	0,0;	0,0
696,9070434570312;	302,75;	0,0;	0,0
696,9548950195312;	295,5;	0,0;	0,0
697,0029296875;	274,75;	0,0;	0,0
697,0508422851562;	272,25;	0,0;	0,0
697,0986938476562;	306,75;	0,0;	0,0
697,1466064453125;	278,75;	0,0;	0,0
697,1943969726562;	300,75;	0,0;	0,0
697,2422485351562;	284,25;	0,0;	0,0
697,2901000976562;	292,5;	0,0;	0,0
697,337890625;	279,25;	0,0;	0,0
697,3856811523438;	293,75;	0,0;	0,0
697,4334716796875;	293,75;	0,0;	0,0
697,481201171875;	290,0;	0,0;	0,0
697,5289306640625;	290,25;	0,0;	0,0
697,5767211914062;	295,0;	0,0;	0,0
697,6243896484375;	324,25;	0,0;	0,0
697,6720581054688;	294,75;	0,0;	0,0
697,7197875976562;	321,5;	0,0;	0,0
697,7673950195312;	299,5;	0,0;	0,0
697,8150634765625;	326,5;	0,0;	0,0
697,8626708984375;	318,5;	0,0;	0,0
697,9102172851562;	313,25;	0,0;	0,0
697,9578857421875;	276,75;	0,0;	0,0
698,0054931640625;	286,75;	0,0;	0,0
698,052978515625;	286,75;	0,0;	0,0
698,1005249023438;	287,25;	0,0;	0,0
698,1481323242188;	283,5;	0,0;	0,0
698,195556640625;	304,75;	0,0;	0,0
698,2431030273438;	284,25;	0,0;	0,0
698,29052734375;	292,25;	0,0;	0,0
698,3380126953125;	290,5;	0,0;	0,0
698,3854370117188;	282,25;	0,0;	0,0
698,432861328125;	303,25;	0,0;	0,0
698,480224609375;	280,5;	0,0;	0,0
698,5276489257812;	280,5;	0,0;	0,0
698,5750122070312;	318,25;	0,0;	0,0
698,6223754882812;	284,0;	0,0;	0,0
698,669677734375;	280,5;	0,0;	0,0
698,7169799804688;	288,25;	0,0;	0,0
698,7643432617188;	296,25;	0,0;	0,0
698,8116455078125;	286,0;	0,0;	0,0
698,85888671875;	302,5;	0,0;	0,0
698,9061279296875;	290,75;	0,0;	0,0
698,9534301757812;	284,0;	0,0;	0,0
699,0006103515625;	292,5;	0,0;	0,0
699,0477905273438;	301,5;	0,0;	0,0
699,094970703125;	281,25;	0,0;	0,0
699,1421508789062;	305,25;	0,0;	0,0
699,1893310546875;	312,5;	0,0;	0,0
699,2363891601562;	301,75;	0,0;	0,0
699,2835693359375;	281,75;	0,0;	0,0
699,3306884765625;	295,0;	0,0;	0,0
699,3777465820312;	276,5;	0,0;	0,0
699,4248657226562;	270,75;	0,0;	0,0
699,471923828125;	290,75;	0,0;	0,0
699,5189208984375;	279,75;	0,0;	0,0
699,5659790039062;	277,0;	0,0;	0,0
699,6129150390625;	292,75;	0,0;	0,0
699,659912109375;	300,25;	0,0;	0,0
699,7069091796875;	298,75;	0,0;	0,0
699,75390625;	285,75;	0,0;	0,0
699,80078125;	290,5;	0,0;	0,0
699,8477172851562;	259,25;	0,0;	0,0
699,8945922851562;	298,0;	0,0;	0,0
699,9414672851562;	293,25;	0,0;	0,0
699,9884033203125;	290,75;	0,0;	0,0
700,0352172851562;	291,75;	0,0;	0,0
700,0820922851562;	283,5;	0,0;	0,0
700,12890625;	284,5;	0,0;	0,0
700,1755981445312;	292,0;	0,0;	0,0
700,2224731445312;	296,75;	0,0;	0,0
700,2692260742188;	279,25;	0,0;	0,0
700,31591796875;	304,25;	0,0;	0,0
700,3626708984375;	268,25;	0,0;	0,0
700,409423828125;	284,5;	0,0;	0,0
700,4560546875;	311,75;	0,0;	0,0
700,5027465820312;	284,0;	0,0;	0,0
700,5494384765625;	287,5;	0,0;	0,0
700,5960693359375;	307,0;	0,0;	0,0
700,6427001953125;	301,75;	0,0;	0,0
700,6893310546875;	287,25;	0,0;	0,0
700,7359619140625;	281,0;	0,0;	0,0
700,7825317382812;	282,75;	0,0;	0,0
700,8291015625;	292,0;	0,0;	0,0
700,8756103515625;	297,25;	0,0;	0,0
700,9221801757812;	284,0;	0,0;	0,0
700,9686279296875;	290,0;	0,0;	0,0
701,0151977539062;	325,25;	0,0;	0,0
701,0617065429688;	285,0;	0,0;	0,0
701,1080932617188;	309,0;	0,0;	0,0
701,154541015625;	298,5;	0,0;	0,0
701,2010498046875;	277,0;	0,0;	0,0
701,2473754882812;	283,5;	0,0;	0,0
701,2937622070312;	293,0;	0,0;	0,0
701,3402099609375;	285,5;	0,0;	0,0
701,3865356445312;	270,25;	0,0;	0,0
701,432861328125;	298,0;	0,0;	0,0
701,4791870117188;	303,25;	0,0;	0,0
701,5255126953125;	276,5;	0,0;	0,0
701,5718383789062;	289,75;	0,0;	0,0
701,6181030273438;	284,0;	0,0;	0,0
701,664306640625;	320,0;	0,0;	0,0
701,7106323242188;	297,0;	0,0;	0,0
701,7567749023438;	288,75;	0,0;	0,0
701,8030395507812;	270,75;	0,0;	0,0
701,8492431640625;	278,5;	0,0;	0,0
701,8953857421875;	274,5;	0,0;	0,0
701,9415283203125;	282,0;	0,0;	0,0
701,9877319335938;	288,75;	0,0;	0,0
702,0338134765625;	311,75;	0,0;	0,0
702,0799560546875;	281,75;	0,0;	0,0
702,1260375976562;	299,75;	0,0;	0,0
702,172119140625;	303,0;	0,0;	0,0
702,2181396484375;	288,75;	0,0;	0,0
702,2642211914062;	314,25;	0,0;	0,0
702,3101806640625;	303,25;	0,0;	0,0
702,356201171875;	295,25;	0,0;	0,0
702,4022216796875;	311,0;	0,0;	0,0
702,4481811523438;	309,75;	0,0;	0,0
702,494140625;	287,0;	0,0;	0,0
702,5400390625;	291,0;	0,0;	0,0
702,5859985351562;	302,0;	0,0;	0,0
702,6318969726562;	282,5;	0,0;	0,0
702,6777954101562;	268,25;	0,0;	0,0
702,7236938476562;	286,0;	0,0;	0,0
702,76953125;	287,0;	0,0;	0,0
702,8153686523438;	296,0;	0,0;	0,0
702,8611450195312;	267,25;	0,0;	0,0
702,906982421875;	297,5;	0,0;	0,0
702,9527587890625;	309,0;	0,0;	0,0
702,99853515625;	283,5;	0,0;	0,0
703,0443115234375;	306,5;	0,0;	0,0
703,0900268554688;	294,0;	0,0;	0,0
703,1357421875;	278,75;	0,0;	0,0
703,1814575195312;	298,0;	0,0;	0,0
703,2271118164062;	303,75;	0,0;	0,0
703,2728271484375;	282,25;	0,0;	0,0
703,3184204101562;	290,5;	0,0;	0,0
703,364013671875;	285,25;	0,0;	0,0
703,4097290039062;	300,5;	0,0;	0,0
703,4552612304688;	266,25;	0,0;	0,0
703,5008544921875;	261,5;	0,0;	0,0
703,5464477539062;	268,75;	0,0;	0,0
703,5919189453125;	294,0;	0,0;	0,0
703,6375122070312;	279,25;	0,0;	0,0
703,6830444335938;	272,5;	0,0;	0,0
703,728515625;	287,75;	0,0;	0,0
703,7739868164062;	271,25;	0,0;	0,0
703,8195190429688;	297,5;	0,0;	0,0
703,8649291992188;	280,5;	0,0;	0,0
703,910400390625;	274,25;	0,0;	0,0
703,9557495117188;	282,75;	0,0;	0,0
704,0011596679688;	298,0;	0,0;	0,0
704,0465698242188;	291,75;	0,0;	0,0
704,0918579101562;	268,75;	0,0;	0,0
704,1372680664062;	277,5;	0,0;	0,0
704,1825561523438;	278,25;	0,0;	0,0
704,2278442382812;	266,0;	0,0;	0,0
704,2731323242188;	318,25;	0,0;	0,0
704,3184204101562;	259,25;	0,0;	0,0
704,3637084960938;	275,25;	0,0;	0,0
704,408935546875;	284,0;	0,0;	0,0
704,4541625976562;	269,0;	0,0;	0,0
704,4993286132812;	279,0;	0,0;	0,0
704,5445556640625;	281,5;	0,0;	0,0
704,5897827148438;	287,5;	0,0;	0,0
704,6348876953125;	260,0;	0,0;	0,0
704,6800537109375;	263,5;	0,0;	0,0
704,7252197265625;	288,0;	0,0;	0,0
704,7702026367188;	281,75;	0,0;	0,0
704,8153076171875;	281,75;	0,0;	0,0
704,8603515625;	266,5;	0,0;	0,0
704,9054565429688;	265,75;	0,0;	0,0
704,9505615234375;	276,5;	0,0;	0,0
704,9955444335938;	295,25;	0,0;	0,0
705,04052734375;	264,25;	0,0;	0,0
705,0855102539062;	281,75;	0,0;	0,0
705,1304931640625;	284,25;	0,0;	0,0
705,1754150390625;	263,25;	0,0;	0,0
705,2203979492188;	283,0;	0,0;	0,0
705,2652587890625;	275,0;	0,0;	0,0
705,3102416992188;	278,75;	0,0;	0,0
705,3551025390625;	268,5;	0,0;	0,0
705,39990234375;	260,5;	0,0;	0,0
705,4447631835938;	275,5;	0,0;	0,0
705,4896850585938;	266,5;	0,0;	0,0
705,534423828125;	275,25;	0,0;	0,0
705,5792846679688;	267,25;	0,0;	0,0
705,6240234375;	296,75;	0,0;	0,0
705,6688232421875;	272,75;	0,0;	0,0
705,7135620117188;	277,25;	0,0;	0,0
705,75830078125;	274,0;	0,0;	0,0
705,8029174804688;	276,5;	0,0;	0,0
705,84765625;	312,25;	0,0;	0,0
705,892333984375;	281,75;	0,0;	0,0
705,93701171875;	260,5;	0,0;	0,0
705,981689453125;	283,0;	0,0;	0,0
706,0262451171875;	269,25;	0,0;	0,0
706,0708618164062;	290,5;	0,0;	0,0
706,1155395507812;	270,75;	0,0;	0,0
706,1600341796875;	281,75;	0,0;	0,0
706,2046508789062;	274,0;	0,0;	0,0
706,2492065429688;	278,5;	0,0;	0,0
706,2936401367188;	269,25;	0,0;	0,0
706,3381958007812;	269,25;	0,0;	0,0
706,3826293945312;	294,25;	0,0;	0,0
706,4271240234375;	305,5;	0,0;	0,0
706,4716186523438;	274,75;	0,0;	0,0
706,5160522460938;	301,0;	0,0;	0,0
706,5604248046875;	266,0;	0,0;	0,0
706,6048583984375;	269,5;	0,0;	0,0
706,6492309570312;	286,25;	0,0;	0,0
706,693603515625;	290,75;	0,0;	0,0
706,738037109375;	263,0;	0,0;	0,0
706,7823486328125;	286,5;	0,0;	0,0
706,82666015625;	286,75;	0,0;	0,0
706,8709716796875;	291,0;	0,0;	0,0
706,9152221679688;	257,75;	0,0;	0,0
706,9595336914062;	265,5;	0,0;	0,0
707,0037841796875;	286,25;	0,0;	0,0
707,0479736328125;	281,75;	0,0;	0,0
707,0922241210938;	280,0;	0,0;	0,0
707,136474609375;	272,25;	0,0;	0,0
707,1806030273438;	278,25;	0,0;	0,0
707,2247314453125;	258,5;	0,0;	0,0
707,2689819335938;	270,25;	0,0;	0,0
707,3130493164062;	267,5;	0,0;	0,0
707,357177734375;	263,0;	0,0;	0,0
707,4012451171875;	278,0;	0,0;	0,0
707,4453125;	281,25;	0,0;	0,0
707,4893798828125;	267,5;	0,0;	0,0
707,5333862304688;	284,25;	0,0;	0,0
707,5774536132812;	277,5;	0,0;	0,0
707,6215209960938;	272,5;	0,0;	0,0
707,6654663085938;	269,0;	0,0;	0,0
707,70947265625;	304,25;	0,0;	0,0
707,75341796875;	272,0;	0,0;	0,0
707,7973022460938;	261,75;	0,0;	0,0
707,84130859375;	267,75;	0,0;	0,0
707,8851928710938;	272,5;	0,0;	0,0
707,9290771484375;	263,5;	0,0;	0,0
707,9729614257812;	254,5;	0,0;	0,0
708,016845703125;	279,75;	0,0;	0,0
708,0606079101562;	273,25;	0,0;	0,0
708,1044921875;	285,75;	0,0;	0,0
708,1482543945312;	281,25;	0,0;	0,0
708,1920166015625;	284,25;	0,0;	0,0
708,2359008789062;	273,75;	0,0;	0,0
708,2796020507812;	276,0;	0,0;	0,0
708,3233032226562;	274,25;	0,0;	0,0
708,3670654296875;	299,5;	0,0;	0,0
708,4107055664062;	296,0;	0,0;	0,0
708,4544067382812;	292,25;	0,0;	0,0
708,4981079101562;	255,5;	0,0;	0,0
708,541748046875;	267,0;	0,0;	0,0
708,5853881835938;	271,75;	0,0;	0,0
708,6289672851562;	280,5;	0,0;	0,0
708,6725463867188;	256,0;	0,0;	0,0
708,7161865234375;	268,25;	0,0;	0,0
708,7598266601562;	266,0;	0,0;	0,0
708,8032836914062;	266,25;	0,0;	0,0
708,8468627929688;	257,25;	0,0;	0,0
708,8903198242188;	283,5;	0,0;	0,0
708,933837890625;	278,5;	0,0;	0,0
708,977294921875;	280,5;	0,0;	0,0
709,020751953125;	276,0;	0,0;	0,0
709,064208984375;	264,5;	0,0;	0,0
709,107666015625;	266,25;	0,0;	0,0
709,1510009765625;	282,75;	0,0;	0,0
709,1943969726562;	272,75;	0,0;	0,0
709,23779296875;	276,5;	0,0;	0,0
709,2811279296875;	262,75;	0,0;	0,0
709,324462890625;	269,5;	0,0;	0,0
709,3678588867188;	272,75;	0,0;	0,0
709,4111328125;	252,75;	0,0;	0,0
709,4544067382812;	277,75;	0,0;	0,0
709,4977416992188;	270,75;	0,0;	0,0
709,5409545898438;	251,25;	0,0;	0,0
709,5841674804688;	271,75;	0,0;	0,0
709,6273803710938;	287,75;	0,0;	0,0
709,6705932617188;	274,25;	0,0;	0,0
709,7138061523438;	267,25;	0,0;	0,0
709,7570190429688;	276,5;	0,0;	0,0
709,8001098632812;	269,75;	0,0;	0,0
709,84326171875;	244,25;	0,0;	0,0
709,8863525390625;	256,0;	0,0;	0,0
709,929443359375;	267,0;	0,0;	0,0
709,9725952148438;	281,25;	0,0;	0,0
710,015625;	260,75;	0,0;	0,0
710,0586547851562;	272,0;	0,0;	0,0
710,1016845703125;	255,0;	0,0;	0,0
710,1446533203125;	265,5;	0,0;	0,0
710,1876831054688;	276,0;	0,0;	0,0
710,230712890625;	277,75;	0,0;	0,0
710,2736206054688;	271,5;	0,0;	0,0
710,3165893554688;	259,5;	0,0;	0,0
710,3594970703125;	272,75;	0,0;	0,0
710,4024047851562;	272,5;	0,0;	0,0
710,4453125;	236,75;	0,0;	0,0
710,4882202148438;	268,25;	0,0;	0,0
710,5310668945312;	261,75;	0,0;	0,0
710,5738525390625;	280,75;	0,0;	0,0
710,61669921875;	287,75;	0,0;	0,0
710,6594848632812;	268,25;	0,0;	0,0
710,7023315429688;	279,5;	0,0;	0,0
710,7450561523438;	275,25;	0,0;	0,0
710,7877807617188;	261,75;	0,0;	0,0
710,83056640625;	276,25;	0,0;	0,0
710,873291015625;	266,0;	0,0;	0,0
710,9159545898438;	246,75;	0,0;	0,0
710,9586791992188;	262,0;	0,0;	0,0
711,0012817382812;	248,75;	0,0;	0,0
711,0439453125;	267,5;	0,0;	0,0
711,0865478515625;	268,5;	0,0;	0,0
711,1292114257812;	257,75;	0,0;	0,0
711,1718139648438;	266,0;	0,0;	0,0
711,2144165039062;	266,75;	0,0;	0,0
711,2568969726562;	249,25;	0,0;	0,0
711,2994995117188;	274,75;	0,0;	0,0
711,342041015625;	288,75;	0,0;	0,0
711,384521484375;	255,5;	0,0;	0,0
711,4270629882812;	279,25;	0,0;	0,0
711,469482421875;	256,5;	0,0;	0,0
711,511962890625;	279,75;	0,0;	0,0
711,5543823242188;	266,25;	0,0;	0,0
711,5968017578125;	288,25;	0,0;	0,0
711,6392211914062;	273,5;	0,0;	0,0
711,681640625;	271,25;	0,0;	0,0
711,7239990234375;	251,25;	0,0;	0,0
711,766357421875;	284,0;	0,0;	0,0
711,8087158203125;	287,5;	0,0;	0,0
711,8510131835938;	251,75;	0,0;	0,0
711,893310546875;	266,5;	0,0;	0,0
711,9356689453125;	274,0;	0,0;	0,0
711,9779052734375;	287,5;	0,0;	0,0
712,0201416015625;	259,25;	0,0;	0,0
712,0623168945312;	275,75;	0,0;	0,0
712,1045532226562;	260,25;	0,0;	0,0
712,1467895507812;	244,5;	0,0;	0,0
712,1889038085938;	260,25;	0,0;	0,0
712,2311401367188;	261,0;	0,0;	0,0
712,2733154296875;	277,75;	0,0;	0,0
712,3153686523438;	262,0;	0,0;	0,0
712,3575439453125;	271,25;	0,0;	0,0
712,3995971679688;	259,5;	0,0;	0,0
712,441650390625;	273,5;	0,0;	0,0
712,4837646484375;	263,75;	0,0;	0,0
712,5258178710938;	262,0;	0,0;	0,0
712,5678100585938;	259,5;	0,0;	0,0
712,6098022460938;	277,75;	0,0;	0,0
712,6517944335938;	269,75;	0,0;	0,0
712,6937255859375;	248,25;	0,0;	0,0
712,7357177734375;	270,0;	0,0;	0,0
712,7776489257812;	263,25;	0,0;	0,0
712,819580078125;	269,25;	0,0;	0,0
712,8615112304688;	277,25;	0,0;	0,0
712,9033813476562;	264,5;	0,0;	0,0
712,9452514648438;	260,0;	0,0;	0,0
712,9871215820312;	288,0;	0,0;	0,0
713,0289306640625;	282,0;	0,0;	0,0
713,0707397460938;	287,0;	0,0;	0,0
713,1126098632812;	274,25;	0,0;	0,0
713,154296875;	265,5;	0,0;	0,0
713,1961059570312;	269,5;	0,0;	0,0
713,2378540039062;	284,5;	0,0;	0,0
713,279541015625;	264,5;	0,0;	0,0
713,3212890625;	241,5;	0,0;	0,0
713,363037109375;	231,25;	0,0;	0,0
713,4046630859375;	251,25;	0,0;	0,0
713,4463500976562;	271,25;	0,0;	0,0
713,4879150390625;	273,75;	0,0;	0,0
713,5296020507812;	236,75;	0,0;	0,0
713,5712280273438;	266,0;	0,0;	0,0
713,6128540039062;	248,0;	0,0;	0,0
713,6543579101562;	279,0;	0,0;	0,0
713,6959228515625;	268,25;	0,0;	0,0
713,7374267578125;	255,75;	0,0;	0,0
713,7789916992188;	269,5;	0,0;	0,0
713,8204345703125;	255,0;	0,0;	0,0
713,8619384765625;	291,5;	0,0;	0,0
713,9034423828125;	244,5;	0,0;	0,0
713,9448852539062;	269,25;	0,0;	0,0
713,9862670898438;	261,75;	0,0;	0,0
714,0277099609375;	280,5;	0,0;	0,0
714,0691528320312;	269,25;	0,0;	0,0
714,1104736328125;	273,25;	0,0;	0,0
714,1519165039062;	263,0;	0,0;	0,0
714,1931762695312;	244,75;	0,0;	0,0
714,2345581054688;	254,75;	0,0;	0,0
714,27587890625;	257,0;	0,0;	0,0
714,3171997070312;	274,0;	0,0;	0,0
714,3583984375;	270,0;	0,0;	0,0
714,3997192382812;	255,25;	0,0;	0,0
714,44091796875;	278,25;	0,0;	0,0
714,4821166992188;	272,5;	0,0;	0,0
714,5233764648438;	284,0;	0,0;	0,0
714,5645141601562;	269,0;	0,0;	0,0
714,6056518554688;	313,5;	0,0;	0,0
714,6469116210938;	287,0;	0,0;	0,0
714,68798828125;	337,25;	0,0;	0,0
714,7291259765625;	377,5;	0,0;	0,0
714,7702026367188;	416,5;	0,0;	0,0
714,811279296875;	318,75;	0,0;	0,0
714,8523559570312;	243,5;	0,0;	0,0
714,8933715820312;	245,5;	0,0;	0,0
714,9344482421875;	271,75;	0,0;	0,0
714,9754638671875;	254,75;	0,0;	0,0
715,0164794921875;	267,25;	0,0;	0,0
715,0574340820312;	257,25;	0,0;	0,0
715,0984497070312;	270,25;	0,0;	0,0
715,1393432617188;	260,25;	0,0;	0,0
715,1802978515625;	281,75;	0,0;	0,0
715,22119140625;	258,0;	0,0;	0,0
715,2620239257812;	278,0;	0,0;	0,0
715,3029174804688;	293,5;	0,0;	0,0
715,3438110351562;	269,5;	0,0;	0,0
715,3845825195312;	266,25;	0,0;	0,0
715,4254760742188;	292,5;	0,0;	0,0
715,4662475585938;	273,5;	0,0;	0,0
715,5070190429688;	312,75;	0,0;	0,0
715,5477905273438;	311,75;	0,0;	0,0
715,5885620117188;	320,5;	0,0;	0,0
715,6293334960938;	325,75;	0,0;	0,0
715,6700439453125;	330,25;	0,0;	0,0
715,7107543945312;	334,25;	0,0;	0,0
715,7513427734375;	307,75;	0,0;	0,0
715,7920532226562;	300,75;	0,0;	0,0
715,8327026367188;	289,75;	0,0;	0,0
715,873291015625;	264,5;	0,0;	0,0
715,9139404296875;	292,0;	0,0;	0,0
715,9545288085938;	284,25;	0,0;	0,0
715,9951171875;	254,25;	0,0;	0,0
716,0357055664062;	243,75;	0,0;	0,0
716,0762329101562;	280,25;	0,0;	0,0
716,1167602539062;	264,5;	0,0;	0,0
716,1572875976562;	253,5;	0,0;	0,0
716,1976928710938;	267,5;	0,0;	0,0
716,2382202148438;	291,25;	0,0;	0,0
716,2786865234375;	263,5;	0,0;	0,0
716,319091796875;	250,75;	0,0;	0,0
716,3595581054688;	290,75;	0,0;	0,0
716,3999633789062;	270,25;	0,0;	0,0
716,4402465820312;	288,5;	0,0;	0,0
716,480712890625;	245,75;	0,0;	0,0
716,52099609375;	256,75;	0,0;	0,0
716,5613403320312;	270,25;	0,0;	0,0
716,6016845703125;	241,0;	0,0;	0,0
716,6419677734375;	238,75;	0,0;	0,0
716,6822509765625;	271,25;	0,0;	0,0
716,7224731445312;	239,25;	0,0;	0,0
716,7626953125;	245,5;	0,0;	0,0
716,802978515625;	271,0;	0,0;	0,0
716,8432006835938;	261,25;	0,0;	0,0
716,88330078125;	260,0;	0,0;	0,0
716,9235229492188;	265,0;	0,0;	0,0
716,9636840820312;	277,75;	0,0;	0,0
717,0038452148438;	247,0;	0,0;	0,0
717,0439453125;	261,5;	0,0;	0,0
717,0840454101562;	257,0;	0,0;	0,0
717,1241455078125;	266,0;	0,0;	0,0
717,1641845703125;	277,75;	0,0;	0,0
717,2042236328125;	248,5;	0,0;	0,0
717,2442626953125;	284,25;	0,0;	0,0
717,2843017578125;	252,0;	0,0;	0,0
717,32421875;	262,5;	0,0;	0,0
717,3642578125;	259,75;	0,0;	0,0
717,4042358398438;	252,25;	0,0;	0,0
717,4441528320312;	265,0;	0,0;	0,0
717,484130859375;	264,0;	0,0;	0,0
717,5240478515625;	242,75;	0,0;	0,0
717,5638427734375;	267,75;	0,0;	0,0
717,603759765625;	257,5;	0,0;	0,0
717,6436157226562;	256,5;	0,0;	0,0
717,6834716796875;	259,5;	0,0;	0,0
717,7232666015625;	246,75;	0,0;	0,0
717,7631225585938;	253,25;	0,0;	0,0
717,8028564453125;	261,75;	0,0;	0,0
717,8426513671875;	269,25;	0,0;	0,0
717,8823852539062;	255,75;	0,0;	0,0
717,922119140625;	251,25;	0,0;	0,0
717,9618530273438;	254,0;	0,0;	0,0
718,0015869140625;	258,75;	0,0;	0,0
718,0411987304688;	261,5;	0,0;	0,0
718,0808715820312;	257,25;	0,0;	0,0
718,1204833984375;	259,5;	0,0;	0,0
718,16015625;	259,0;	0,0;	0,0
718,1998291015625;	261,75;	0,0;	0,0
718,2393188476562;	265,25;	0,0;	0,0
718,2789306640625;	260,5;	0,0;	0,0
718,3185424804688;	270,25;	0,0;	0,0
718,3579711914062;	272,0;	0,0;	0,0
718,3975830078125;	259,25;	0,0;	0,0
718,4370727539062;	274,0;	0,0;	0,0
718,4765625;	289,25;	0,0;	0,0
718,5159912109375;	296,5;	0,0;	0,0
718,555419921875;	286,5;	0,0;	0,0
718,5948486328125;	291,5;	0,0;	0,0
718,6343383789062;	312,0;	0,0;	0,0
718,6737060546875;	370,5;	0,0;	0,0
718,7130737304688;	369,25;	0,0;	0,0
718,75244140625;	290,25;	0,0;	0,0
718,791748046875;	256,25;	0,0;	0,0
718,8311157226562;	258,5;	0,0;	0,0
718,8704223632812;	250,75;	0,0;	0,0
718,90966796875;	253,0;	0,0;	0,0
718,948974609375;	271,5;	0,0;	0,0
718,98828125;	225,5;	0,0;	0,0
719,0274047851562;	248,25;	0,0;	0,0
719,0667114257812;	239,25;	0,0;	0,0
719,1058959960938;	262,0;	0,0;	0,0
719,1450805664062;	253,25;	0,0;	0,0
719,1842651367188;	234,25;	0,0;	0,0
719,223388671875;	262,5;	0,0;	0,0
719,2625122070312;	245,0;	0,0;	0,0
719,3016357421875;	241,5;	0,0;	0,0
719,3407592773438;	261,5;	0,0;	0,0
719,3797607421875;	247,0;	0,0;	0,0
719,4188842773438;	251,25;	0,0;	0,0
719,4578857421875;	239,0;	0,0;	0,0
719,4969482421875;	233,25;	0,0;	0,0
719,5359497070312;	264,75;	0,0;	0,0
719,5748901367188;	290,0;	0,0;	0,0
719,6139526367188;	236,5;	0,0;	0,0
719,65283203125;	264,0;	0,0;	0,0
719,6917724609375;	238,0;	0,0;	0,0
719,7307739257812;	256,25;	0,0;	0,0
719,7696533203125;	231,5;	0,0;	0,0
719,8085327148438;	264,75;	0,0;	0,0
719,8473510742188;	247,5;	0,0;	0,0
719,8862915039062;	229,5;	0,0;	0,0
719,925048828125;	256,0;	0,0;	0,0
719,9638671875;	266,25;	0,0;	0,0
720,002685546875;	261,75;	0,0;	0,0
720,0413818359375;	260,75;	0,0;	0,0
720,0802001953125;	291,25;	0,0;	0,0
720,1189575195312;	269,5;	0,0;	0,0
720,1576538085938;	294,0;	0,0;	0,0
720,1963500976562;	286,75;	0,0;	0,0
720,2350463867188;	277,75;	0,0;	0,0
720,2737426757812;	239,0;	0,0;	0,0
720,3124389648438;	245,25;	0,0;	0,0
720,3509521484375;	245,5;	0,0;	0,0
720,3896484375;	254,25;	0,0;	0,0
720,4282836914062;	261,75;	0,0;	0,0
720,466796875;	244,0;	0,0;	0,0
720,5054321289062;	221,0;	0,0;	0,0
720,5439453125;	284,75;	0,0;	0,0
720,5824584960938;	285,0;	0,0;	0,0
720,6210327148438;	279,25;	0,0;	0,0
720,6594848632812;	285,0;	0,0;	0,0
720,6979370117188;	322,0;	0,0;	0,0
720,7363891601562;	298,75;	0,0;	0,0
720,7747802734375;	284,0;	0,0;	0,0
720,813232421875;	267,0;	0,0;	0,0
720,8516845703125;	246,5;	0,0;	0,0
720,8900146484375;	260,0;	0,0;	0,0
720,928466796875;	234,75;	0,0;	0,0
720,9668579101562;	236,5;	0,0;	0,0
721,0050659179688;	251,0;	0,0;	0,0
721,04345703125;	272,25;	0,0;	0,0
721,0817260742188;	246,5;	0,0;	0,0
721,1199951171875;	255,75;	0,0;	0,0
721,1582641601562;	245,25;	0,0;	0,0
721,1964721679688;	259,5;	0,0;	0,0
721,2347412109375;	257,5;	0,0;	0,0
721,2730102539062;	253,25;	0,0;	0,0
721,3112182617188;	230,25;	0,0;	0,0
721,3493041992188;	248,5;	0,0;	0,0
721,3875122070312;	260,75;	0,0;	0,0
721,4255981445312;	226,75;	0,0;	0,0
721,4637451171875;	218,5;	0,0;	0,0
721,5018310546875;	258,0;	0,0;	0,0
721,5399780273438;	237,75;	0,0;	0,0
721,5780029296875;	252,25;	0,0;	0,0
721,6160888671875;	257,75;	0,0;	0,0
721,654052734375;	233,75;	0,0;	0,0
721,6920776367188;	234,5;	0,0;	0,0
721,7301635742188;	250,75;	0,0;	0,0
721,76806640625;	266,0;	0,0;	0,0
721,8060302734375;	233,75;	0,0;	0,0
721,8439331054688;	245,75;	0,0;	0,0
721,8818359375;	246,25;	0,0;	0,0
721,9197998046875;	247,75;	0,0;	0,0
721,9577026367188;	232,0;	0,0;	0,0
721,9955444335938;	253,75;	0,0;	0,0
722,0333862304688;	250,75;	0,0;	0,0
722,0712280273438;	250,5;	0,0;	0,0
722,1090698242188;	232,75;	0,0;	0,0
722,1468505859375;	238,0;	0,0;	0,0
722,1846923828125;	241,75;	0,0;	0,0
722,222412109375;	245,25;	0,0;	0,0
722,2601928710938;	261,25;	0,0;	0,0
722,2978515625;	247,75;	0,0;	0,0
722,3355712890625;	241,0;	0,0;	0,0
722,3733520507812;	248,75;	0,0;	0,0
722,4109497070312;	238,0;	0,0;	0,0
722,4486694335938;	248,0;	0,0;	0,0
722,4862670898438;	227,75;	0,0;	0,0
722,5238647460938;	248,0;	0,0;	0,0
722,5615234375;	244,75;	0,0;	0,0
722,59912109375;	234,0;	0,0;	0,0
722,6365966796875;	253,5;	0,0;	0,0
722,6741943359375;	251,75;	0,0;	0,0
722,711669921875;	218,5;	0,0;	0,0
722,7492065429688;	263,75;	0,0;	0,0
722,7867431640625;	254,0;	0,0;	0,0
722,82421875;	244,25;	0,0;	0,0
722,8616943359375;	230,75;	0,0;	0,0
722,899169921875;	239,25;	0,0;	0,0
722,9364624023438;	217,75;	0,0;	0,0
722,9739379882812;	260,0;	0,0;	0,0
723,0113525390625;	239,5;	0,0;	0,0
723,0487060546875;	243,25;	0,0;	0,0
723,0860595703125;	237,5;	0,0;	0,0
723,1234130859375;	209,75;	0,0;	0,0
723,16064453125;	231,5;	0,0;	0,0
723,1980590820312;	256,25;	0,0;	0,0
723,2353515625;	237,0;	0,0;	0,0
723,2725219726562;	230,75;	0,0;	0,0
723,309814453125;	247,75;	0,0;	0,0
723,3469848632812;	214,75;	0,0;	0,0
723,3842163085938;	234,0;	0,0;	0,0
723,4214477539062;	236,0;	0,0;	0,0
723,4586181640625;	236,25;	0,0;	0,0
723,4957885742188;	239,75;	0,0;	0,0
723,532958984375;	238,25;	0,0;	0,0
723,5700073242188;	230,5;	0,0;	0,0
723,6071166992188;	230,0;	0,0;	0,0
723,644287109375;	232,0;	0,0;	0,0
723,6813354492188;	249,75;	0,0;	0,0
723,7183837890625;	230,5;	0,0;	0,0
723,75537109375;	248,25;	0,0;	0,0
723,7923583984375;	232,0;	0,0;	0,0
723,8294067382812;	233,0;	0,0;	0,0
723,8663940429688;	251,25;	0,0;	0,0
723,9033203125;	239,25;	0,0;	0,0
723,9402465820312;	233,5;	0,0;	0,0
723,9771728515625;	233,0;	0,0;	0,0
724,0140991210938;	244,0;	0,0;	0,0
724,051025390625;	218,0;	0,0;	0,0
724,087890625;	225,5;	0,0;	0,0
724,1246337890625;	251,25;	0,0;	0,0
724,1615600585938;	242,0;	0,0;	0,0
724,1983032226562;	235,0;	0,0;	0,0
724,235107421875;	248,0;	0,0;	0,0
724,27197265625;	255,25;	0,0;	0,0
724,3087768554688;	238,0;	0,0;	0,0
724,345458984375;	222,5;	0,0;	0,0
724,3821411132812;	226,0;	0,0;	0,0
724,4188842773438;	230,0;	0,0;	0,0
724,45556640625;	236,5;	0,0;	0,0
724,4922485351562;	244,5;	0,0;	0,0
724,5288696289062;	231,25;	0,0;	0,0
724,5655517578125;	226,5;	0,0;	0,0
724,6021118164062;	237,0;	0,0;	0,0
724,6387329101562;	233,25;	0,0;	0,0
724,6753540039062;	249,75;	0,0;	0,0
724,7119140625;	235,5;	0,0;	0,0
724,7484741210938;	248,25;	0,0;	0,0
724,7849731445312;	238,5;	0,0;	0,0
724,8214721679688;	248,5;	0,0;	0,0
724,8579711914062;	239,25;	0,0;	0,0
724,8944702148438;	234,25;	0,0;	0,0
724,930908203125;	224,5;	0,0;	0,0
724,9673461914062;	238,75;	0,0;	0,0
725,0037841796875;	242,25;	0,0;	0,0
725,0401000976562;	240,5;	0,0;	0,0
725,0765991210938;	240,5;	0,0;	0,0
725,1129760742188;	222,75;	0,0;	0,0
725,1492919921875;	229,25;	0,0;	0,0
725,1856079101562;	217,5;	0,0;	0,0
725,221923828125;	235,75;	0,0;	0,0
725,2582397460938;	243,75;	0,0;	0,0
725,2945556640625;	230,25;	0,0;	0,0
725,3307495117188;	216,5;	0,0;	0,0
725,3670043945312;	231,75;	0,0;	0,0
725,4032592773438;	236,25;	0,0;	0,0
725,4393920898438;	236,75;	0,0;	0,0
725,4756469726562;	254,5;	0,0;	0,0
725,5117797851562;	253,25;	0,0;	0,0
725,5479736328125;	242,75;	0,0;	0,0
725,5840454101562;	245,5;	0,0;	0,0
725,6201782226562;	250,75;	0,0;	0,0
725,65625;	243,75;	0,0;	0,0
725,6923828125;	228,0;	0,0;	0,0
725,7284545898438;	253,75;	0,0;	0,0
725,7644653320312;	255,25;	0,0;	0,0
725,800537109375;	226,75;	0,0;	0,0
725,8365478515625;	215,75;	0,0;	0,0
725,8724975585938;	236,5;	0,0;	0,0
725,908447265625;	240,25;	0,0;	0,0
725,9444580078125;	269,0;	0,0;	0,0
725,9803466796875;	242,75;	0,0;	0,0
726,0162353515625;	230,75;	0,0;	0,0
726,0521240234375;	227,25;	0,0;	0,0
726,0880126953125;	233,0;	0,0;	0,0
726,1239624023438;	229,5;	0,0;	0,0
726,1597900390625;	238,75;	0,0;	0,0
726,195556640625;	218,75;	0,0;	0,0
726,2314453125;	238,5;	0,0;	0,0
726,2671508789062;	240,5;	0,0;	0,0
726,302978515625;	223,75;	0,0;	0,0
726,3387451171875;	234,75;	0,0;	0,0
726,3744506835938;	222,75;	0,0;	0,0
726,41015625;	240,25;	0,0;	0,0
726,4459228515625;	241,75;	0,0;	0,0
726,4815063476562;	218,25;	0,0;	0,0
726,5172119140625;	243,75;	0,0;	0,0
726,5529174804688;	249,25;	0,0;	0,0
726,5884399414062;	224,0;	0,0;	0,0
726,6240844726562;	239,75;	0,0;	0,0
726,6596069335938;	233,0;	0,0;	0,0
726,6952514648438;	215,25;	0,0;	0,0
726,7308349609375;	222,0;	0,0;	0,0
726,766357421875;	228,5;	0,0;	0,0
726,8018798828125;	247,25;	0,0;	0,0
726,83740234375;	243,5;	0,0;	0,0
726,8728637695312;	241,0;	0,0;	0,0
726,9083251953125;	242,5;	0,0;	0,0
726,9437866210938;	235,25;	0,0;	0,0
726,9791870117188;	227,0;	0,0;	0,0
727,0146484375;	218,75;	0,0;	0,0
727,0499877929688;	232,5;	0,0;	0,0
727,0853881835938;	245,75;	0,0;	0,0
727,1207885742188;	226,5;	0,0;	0,0
727,1560668945312;	240,5;	0,0;	0,0
727,19140625;	223,25;	0,0;	0,0
727,2266845703125;	233,75;	0,0;	0,0
727,261962890625;	227,25;	0,0;	0,0
727,2972412109375;	223,25;	0,0;	0,0
727,33251953125;	0,0;	0,0;	0,0
