0.0	0.5
Integration time [ms]:	1.05
Averaging Nr. [scans]:1
Smoothing Nr. [pixels]:0
Data measured with spectrometer [name]:b'1703277U8'
Wave	;Sample	;Dark	;Reference	;Scope	
[nm]	;[counts]	;[counts]	;[counts]	
 
493,2108154296875;	487,25;	0,0;	0,0
493,2895202636719;	427,75;	0,0;	0,0
493,36822509765625;	322,0;	0,0;	0,0
493,4468994140625;	302,75;	0,0;	0,0
493,52557373046875;	324,25;	0,0;	0,0
493,6042175292969;	369,0;	0,0;	0,0
493,6828918457031;	482,25;	0,0;	0,0
493,7615051269531;	499,0;	0,0;	0,0
493,8401184082031;	353,75;	0,0;	0,0
493,9187316894531;	333,5;	0,0;	0,0
493,9973449707031;	339,0;	0,0;	0,0
494,075927734375;	325,5;	0,0;	0,0
494,1545104980469;	315,5;	0,0;	0,0
494,2330627441406;	312,75;	0,0;	0,0
494,3116149902344;	296,75;	0,0;	0,0
494,3901672363281;	343,5;	0,0;	0,0
494,4686584472656;	381,25;	0,0;	0,0
494,5472106933594;	356,75;	0,0;	0,0
494,6257019042969;	319,75;	0,0;	0,0
494,7041931152344;	316,25;	0,0;	0,0
494,78265380859375;	336,75;	0,0;	0,0
494,86114501953125;	348,5;	0,0;	0,0
494,9395751953125;	321,75;	0,0;	0,0
495,0180358886719;	343,75;	0,0;	0,0
495,096435546875;	343,0;	0,0;	0,0
495,1748962402344;	351,25;	0,0;	0,0
495,2532653808594;	385,25;	0,0;	0,0
495,3316650390625;	429,75;	0,0;	0,0
495,4100341796875;	619,25;	0,0;	0,0
495,4884338378906;	1521,5;	0,0;	0,0
495,5667724609375;	4305,0;	0,0;	0,0
495,6451110839844;	4581,0;	0,0;	0,0
495,72344970703125;	983,75;	0,0;	0,0
495,8017883300781;	474,5;	0,0;	0,0
495,8800964355469;	362,75;	0,0;	0,0
495,9583435058594;	360,0;	0,0;	0,0
496,0366516113281;	351,5;	0,0;	0,0
496,11492919921875;	357,75;	0,0;	0,0
496,19317626953125;	346,25;	0,0;	0,0
496,27142333984375;	366,75;	0,0;	0,0
496,34967041015625;	387,5;	0,0;	0,0
496,4278869628906;	512,75;	0,0;	0,0
496,506103515625;	489,75;	0,0;	0,0
496,58428955078125;	432,5;	0,0;	0,0
496,6625061035156;	411,25;	0,0;	0,0
496,74066162109375;	395,75;	0,0;	0,0
496,8188171386719;	379,25;	0,0;	0,0
496,89697265625;	419,25;	0,0;	0,0
496,9751281738281;	365,25;	0,0;	0,0
497,0532531738281;	385,0;	0,0;	0,0
497,1313171386719;	429,75;	0,0;	0,0
497,2094421386719;	428,0;	0,0;	0,0
497,28753662109375;	377,0;	0,0;	0,0
497,3656005859375;	352,5;	0,0;	0,0
497,44366455078125;	358,5;	0,0;	0,0
497,521728515625;	364,25;	0,0;	0,0
497,59979248046875;	384,0;	0,0;	0,0
497,67779541015625;	468,0;	0,0;	0,0
497,7558288574219;	470,75;	0,0;	0,0
497,83380126953125;	453,75;	0,0;	0,0
497,91180419921875;	457,5;	0,0;	0,0
497,9897766113281;	525,5;	0,0;	0,0
498,0677490234375;	736,5;	0,0;	0,0
498,1457214355469;	928,25;	0,0;	0,0
498,2236633300781;	876,75;	0,0;	0,0
498,30157470703125;	713,75;	0,0;	0,0
498,3794860839844;	715,25;	0,0;	0,0
498,4573974609375;	552,75;	0,0;	0,0
498,5353088378906;	414,0;	0,0;	0,0
498,6131896972656;	380,75;	0,0;	0,0
498,6910705566406;	421,25;	0,0;	0,0
498,7688903808594;	412,5;	0,0;	0,0
498,84674072265625;	444,25;	0,0;	0,0
498,924560546875;	400,5;	0,0;	0,0
499,0024108886719;	464,75;	0,0;	0,0
499,0802307128906;	385,5;	0,0;	0,0
499,1579895019531;	392,25;	0,0;	0,0
499,23577880859375;	469,5;	0,0;	0,0
499,3135681152344;	442,25;	0,0;	0,0
499,3913269042969;	378,25;	0,0;	0,0
499,4690856933594;	354,25;	0,0;	0,0
499,5467834472656;	356,0;	0,0;	0,0
499,6245422363281;	355,25;	0,0;	0,0
499,7022399902344;	355,5;	0,0;	0,0
499,7799377441406;	375,5;	0,0;	0,0
499,8576354980469;	393,0;	0,0;	0,0
499,935302734375;	522,5;	0,0;	0,0
500,0129699707031;	845,5;	0,0;	0,0
500,090576171875;	737,75;	0,0;	0,0
500,1682434082031;	472,75;	0,0;	0,0
500,2458801269531;	467,0;	0,0;	0,0
500,323486328125;	605,25;	0,0;	0,0
500,40106201171875;	1153,25;	0,0;	0,0
500,47869873046875;	1274,25;	0,0;	0,0
500,5562744140625;	670,25;	0,0;	0,0
500,6337890625;	490,0;	0,0;	0,0
500,71136474609375;	394,5;	0,0;	0,0
500,7889099121094;	382,0;	0,0;	0,0
500,8664245605469;	404,0;	0,0;	0,0
500,9439392089844;	457,5;	0,0;	0,0
501,02142333984375;	665,0;	0,0;	0,0
501,09893798828125;	676,75;	0,0;	0,0
501,1764221191406;	403,0;	0,0;	0,0
501,25384521484375;	507,5;	0,0;	0,0
501,33135986328125;	648,75;	0,0;	0,0
501,40875244140625;	542,0;	0,0;	0,0
501,4862060546875;	399,25;	0,0;	0,0
501,5636291503906;	456,5;	0,0;	0,0
501,6410217285156;	616,75;	0,0;	0,0
501,7184143066406;	634,75;	0,0;	0,0
501,7957763671875;	423,0;	0,0;	0,0
501,8731384277344;	359,5;	0,0;	0,0
501,95050048828125;	402,25;	0,0;	0,0
502,0278625488281;	529,25;	0,0;	0,0
502,10516357421875;	529,25;	0,0;	0,0
502,1824951171875;	403,5;	0,0;	0,0
502,2597961425781;	382,75;	0,0;	0,0
502,33709716796875;	364,5;	0,0;	0,0
502,41436767578125;	401,0;	0,0;	0,0
502,4916687011719;	412,5;	0,0;	0,0
502,56890869140625;	507,75;	0,0;	0,0
502,6461486816406;	491,75;	0,0;	0,0
502,7233581542969;	397,75;	0,0;	0,0
502,8006286621094;	389,0;	0,0;	0,0
502,8778076171875;	362,25;	0,0;	0,0
502,9549865722656;	340,25;	0,0;	0,0
503,03216552734375;	351,75;	0,0;	0,0
503,1093444824219;	328,75;	0,0;	0,0
503,1865234375;	358,0;	0,0;	0,0
503,2636413574219;	356,5;	0,0;	0,0
503,34075927734375;	343,0;	0,0;	0,0
503,41790771484375;	344,25;	0,0;	0,0
503,4949951171875;	353,25;	0,0;	0,0
503,57208251953125;	365,5;	0,0;	0,0
503,6492004394531;	375,25;	0,0;	0,0
503,72625732421875;	385,5;	0,0;	0,0
503,8033142089844;	435,0;	0,0;	0,0
503,88037109375;	522,0;	0,0;	0,0
503,9573974609375;	758,25;	0,0;	0,0
504,034423828125;	657,0;	0,0;	0,0
504,1114196777344;	414,25;	0,0;	0,0
504,18841552734375;	356,5;	0,0;	0,0
504,2654113769531;	365,5;	0,0;	0,0
504,3423767089844;	385,0;	0,0;	0,0
504,4193115234375;	351,5;	0,0;	0,0
504,49627685546875;	348,0;	0,0;	0,0
504,5732421875;	370,25;	0,0;	0,0
504,650146484375;	428,25;	0,0;	0,0
504,7270202636719;	502,0;	0,0;	0,0
504,8039245605469;	731,25;	0,0;	0,0
504,880859375;	708,5;	0,0;	0,0
504,95770263671875;	531,5;	0,0;	0,0
505,0345458984375;	567,0;	0,0;	0,0
505,1114196777344;	372,5;	0,0;	0,0
505,1882629394531;	351,0;	0,0;	0,0
505,2650451660156;	368,25;	0,0;	0,0
505,34185791015625;	345,75;	0,0;	0,0
505,4186706542969;	347,0;	0,0;	0,0
505,4954528808594;	332,25;	0,0;	0,0
505,57220458984375;	311,5;	0,0;	0,0
505,6489562988281;	349,0;	0,0;	0,0
505,72576904296875;	334,75;	0,0;	0,0
505,802490234375;	341,5;	0,0;	0,0
505,87921142578125;	349,0;	0,0;	0,0
505,9559020996094;	334,25;	0,0;	0,0
506,0326232910156;	317,5;	0,0;	0,0
506,1092834472656;	361,75;	0,0;	0,0
506,1859436035156;	380,25;	0,0;	0,0
506,2626037597656;	443,5;	0,0;	0,0
506,3392639160156;	541,0;	0,0;	0,0
506,4159240722656;	471,75;	0,0;	0,0
506,4925231933594;	404,75;	0,0;	0,0
506,56915283203125;	424,0;	0,0;	0,0
506,645751953125;	452,25;	0,0;	0,0
506,72235107421875;	593,5;	0,0;	0,0
506,7989196777344;	498,75;	0,0;	0,0
506,8754577636719;	356,25;	0,0;	0,0
506,9520263671875;	397,5;	0,0;	0,0
507,028564453125;	408,5;	0,0;	0,0
507,1050720214844;	450,75;	0,0;	0,0
507,1816101074219;	429,75;	0,0;	0,0
507,2580871582031;	543,5;	0,0;	0,0
507,3345642089844;	572,75;	0,0;	0,0
507,4110412597656;	452,25;	0,0;	0,0
507,487548828125;	396,75;	0,0;	0,0
507,56396484375;	394,75;	0,0;	0,0
507,640380859375;	426,25;	0,0;	0,0
507,71685791015625;	533,75;	0,0;	0,0
507,7932434082031;	619,0;	0,0;	0,0
507,86962890625;	423,75;	0,0;	0,0
507,9460144042969;	353,75;	0,0;	0,0
508,02239990234375;	350,0;	0,0;	0,0
508,0987548828125;	424,25;	0,0;	0,0
508,17510986328125;	477,5;	0,0;	0,0
508,2514343261719;	408,75;	0,0;	0,0
508,3277893066406;	351,25;	0,0;	0,0
508,4040832519531;	339,5;	0,0;	0,0
508,4803771972656;	320,0;	0,0;	0,0
508,556640625;	330,75;	0,0;	0,0
508,6329650878906;	326,75;	0,0;	0,0
508,7091979980469;	319,5;	0,0;	0,0
508,78546142578125;	337,25;	0,0;	0,0
508,8616943359375;	370,5;	0,0;	0,0
508,93792724609375;	437,75;	0,0;	0,0
509,0141296386719;	356,75;	0,0;	0,0
509,09033203125;	351,25;	0,0;	0,0
509,1665344238281;	353,5;	0,0;	0,0
509,24267578125;	349,75;	0,0;	0,0
509,31884765625;	353,75;	0,0;	0,0
509,3949890136719;	361,75;	0,0;	0,0
509,4711608886719;	419,0;	0,0;	0,0
509,5472717285156;	514,25;	0,0;	0,0
509,62335205078125;	466,75;	0,0;	0,0
509,699462890625;	550,75;	0,0;	0,0
509,77557373046875;	478,25;	0,0;	0,0
509,85162353515625;	372,5;	0,0;	0,0
509,92767333984375;	353,0;	0,0;	0,0
510,00372314453125;	365,75;	0,0;	0,0
510,0798034667969;	370,75;	0,0;	0,0
510,15582275390625;	371,0;	0,0;	0,0
510,2318115234375;	374,25;	0,0;	0,0
510,3078308105469;	424,5;	0,0;	0,0
510,3837890625;	510,25;	0,0;	0,0
510,45977783203125;	470,25;	0,0;	0,0
510,5357360839844;	473,5;	0,0;	0,0
510,6116943359375;	624,5;	0,0;	0,0
510,6876220703125;	456,25;	0,0;	0,0
510,7635498046875;	417,0;	0,0;	0,0
510,8394470214844;	550,5;	0,0;	0,0
510,9153747558594;	553,75;	0,0;	0,0
510,9912414550781;	367,25;	0,0;	0,0
511,0671081542969;	335,5;	0,0;	0,0
511,1429443359375;	356,0;	0,0;	0,0
511,2188415527344;	363,25;	0,0;	0,0
511,2946472167969;	312,75;	0,0;	0,0
511,3704833984375;	367,0;	0,0;	0,0
511,4462890625;	327,75;	0,0;	0,0
511,5220947265625;	324,5;	0,0;	0,0
511,59783935546875;	319,0;	0,0;	0,0
511,6736145019531;	335,25;	0,0;	0,0
511,7494201660156;	352,5;	0,0;	0,0
511,82513427734375;	354,75;	0,0;	0,0
511,90087890625;	366,25;	0,0;	0,0
511,97662353515625;	361,5;	0,0;	0,0
512,0523071289062;	386,5;	0,0;	0,0
512,1280517578125;	387,75;	0,0;	0,0
512,2036743164062;	463,75;	0,0;	0,0
512,2793579101562;	512,0;	0,0;	0,0
512,3550415039062;	494,75;	0,0;	0,0
512,4306640625;	492,25;	0,0;	0,0
512,5062866210938;	441,75;	0,0;	0,0
512,5819702148438;	433,25;	0,0;	0,0
512,657470703125;	393,5;	0,0;	0,0
512,7330932617188;	336,75;	0,0;	0,0
512,8087158203125;	368,0;	0,0;	0,0
512,88427734375;	390,75;	0,0;	0,0
512,9598999023438;	424,5;	0,0;	0,0
513,035400390625;	476,75;	0,0;	0,0
513,1109008789062;	563,25;	0,0;	0,0
513,1864624023438;	771,5;	0,0;	0,0
513,2619018554688;	671,75;	0,0;	0,0
513,33740234375;	442,25;	0,0;	0,0
513,4129638671875;	386,75;	0,0;	0,0
513,4884033203125;	429,0;	0,0;	0,0
513,5638427734375;	547,75;	0,0;	0,0
513,6392822265625;	591,75;	0,0;	0,0
513,7147216796875;	893,5;	0,0;	0,0
513,7901000976562;	1526,25;	0,0;	0,0
513,8655395507812;	928,5;	0,0;	0,0
513,94091796875;	411,25;	0,0;	0,0
514,0162963867188;	477,75;	0,0;	0,0
514,0916748046875;	553,25;	0,0;	0,0
514,1669921875;	477,0;	0,0;	0,0
514,2423706054688;	355,25;	0,0;	0,0
514,3176879882812;	355,0;	0,0;	0,0
514,3930053710938;	350,75;	0,0;	0,0
514,4683837890625;	390,5;	0,0;	0,0
514,5435791015625;	393,5;	0,0;	0,0
514,618896484375;	417,5;	0,0;	0,0
514,694091796875;	455,0;	0,0;	0,0
514,7694091796875;	398,25;	0,0;	0,0
514,8446655273438;	408,75;	0,0;	0,0
514,9198608398438;	468,75;	0,0;	0,0
514,9950561523438;	467,75;	0,0;	0,0
515,0703125;	454,5;	0,0;	0,0
515,1454467773438;	467,0;	0,0;	0,0
515,220703125;	464,25;	0,0;	0,0
515,2957763671875;	397,75;	0,0;	0,0
515,3709716796875;	367,25;	0,0;	0,0
515,4461059570312;	391,25;	0,0;	0,0
515,521240234375;	382,5;	0,0;	0,0
515,5963745117188;	374,0;	0,0;	0,0
515,6714477539062;	382,25;	0,0;	0,0
515,7465209960938;	390,0;	0,0;	0,0
515,8215942382812;	399,5;	0,0;	0,0
515,896728515625;	436,25;	0,0;	0,0
515,9717407226562;	448,5;	0,0;	0,0
516,0467529296875;	590,0;	0,0;	0,0
516,121826171875;	625,0;	0,0;	0,0
516,1968383789062;	500,25;	0,0;	0,0
516,2717895507812;	496,5;	0,0;	0,0
516,3468017578125;	511,25;	0,0;	0,0
516,4217529296875;	620,0;	0,0;	0,0
516,4967651367188;	1168,5;	0,0;	0,0
516,5716552734375;	2646,0;	0,0;	0,0
516,6466674804688;	2259,25;	0,0;	0,0
516,7215576171875;	976,5;	0,0;	0,0
516,7964477539062;	739,0;	0,0;	0,0
516,871337890625;	526,25;	0,0;	0,0
516,9461669921875;	767,5;	0,0;	0,0
517,0211181640625;	1067,5;	0,0;	0,0
517,0960083007812;	667,75;	0,0;	0,0
517,1707763671875;	463,5;	0,0;	0,0
517,24560546875;	367,5;	0,0;	0,0
517,3204345703125;	353,75;	0,0;	0,0
517,3952026367188;	358,25;	0,0;	0,0
517,4700927734375;	376,25;	0,0;	0,0
517,5448608398438;	353,75;	0,0;	0,0
517,61962890625;	354,25;	0,0;	0,0
517,6943969726562;	363,25;	0,0;	0,0
517,7691040039062;	378,5;	0,0;	0,0
517,8438110351562;	374,0;	0,0;	0,0
517,9185791015625;	365,25;	0,0;	0,0
517,9932250976562;	390,5;	0,0;	0,0
518,0679321289062;	395,5;	0,0;	0,0
518,1426391601562;	441,75;	0,0;	0,0
518,21728515625;	571,5;	0,0;	0,0
518,2919311523438;	483,5;	0,0;	0,0
518,3665771484375;	365,75;	0,0;	0,0
518,4412231445312;	374,75;	0,0;	0,0
518,515869140625;	373,75;	0,0;	0,0
518,5903930664062;	386,75;	0,0;	0,0
518,6650390625;	405,25;	0,0;	0,0
518,7396240234375;	407,25;	0,0;	0,0
518,8141479492188;	421,75;	0,0;	0,0
518,8887329101562;	547,75;	0,0;	0,0
518,9631958007812;	990,75;	0,0;	0,0
519,0377807617188;	1302,0;	0,0;	0,0
519,1123046875;	1195,0;	0,0;	0,0
519,186767578125;	636,75;	0,0;	0,0
519,2612915039062;	558,75;	0,0;	0,0
519,3358154296875;	734,75;	0,0;	0,0
519,41015625;	661,5;	0,0;	0,0
519,4846801757812;	481,5;	0,0;	0,0
519,5591430664062;	394,75;	0,0;	0,0
519,633544921875;	396,75;	0,0;	0,0
519,7080078125;	422,25;	0,0;	0,0
519,7822875976562;	447,25;	0,0;	0,0
519,856689453125;	370,75;	0,0;	0,0
519,93115234375;	389,75;	0,0;	0,0
520,0054321289062;	468,75;	0,0;	0,0
520,0797729492188;	556,5;	0,0;	0,0
520,1541748046875;	472,5;	0,0;	0,0
520,2283935546875;	439,75;	0,0;	0,0
520,302734375;	516,25;	0,0;	0,0
520,3770751953125;	505,25;	0,0;	0,0
520,4512939453125;	505,75;	0,0;	0,0
520,525634765625;	466,25;	0,0;	0,0
520,5997924804688;	471,25;	0,0;	0,0
520,674072265625;	687,0;	0,0;	0,0
520,7483520507812;	603,0;	0,0;	0,0
520,822509765625;	385,75;	0,0;	0,0
520,8967895507812;	362,0;	0,0;	0,0
520,970947265625;	371,0;	0,0;	0,0
521,0451049804688;	348,5;	0,0;	0,0
521,1192626953125;	365,5;	0,0;	0,0
521,1934204101562;	378,75;	0,0;	0,0
521,267578125;	432,5;	0,0;	0,0
521,3417358398438;	562,0;	0,0;	0,0
521,415771484375;	641,25;	0,0;	0,0
521,4898681640625;	648,75;	0,0;	0,0
521,5640258789062;	598,25;	0,0;	0,0
521,6380615234375;	572,25;	0,0;	0,0
521,712158203125;	490,5;	0,0;	0,0
521,7862548828125;	389,5;	0,0;	0,0
521,8602294921875;	387,75;	0,0;	0,0
521,9342651367188;	361,0;	0,0;	0,0
522,0082397460938;	367,0;	0,0;	0,0
522,0822143554688;	371,75;	0,0;	0,0
522,1563110351562;	369,75;	0,0;	0,0
522,230224609375;	378,75;	0,0;	0,0
522,30419921875;	386,0;	0,0;	0,0
522,3781127929688;	526,5;	0,0;	0,0
522,4520874023438;	923,25;	0,0;	0,0
522,5260009765625;	2222,75;	0,0;	0,0
522,599853515625;	2338,75;	0,0;	0,0
522,6737670898438;	779,5;	0,0;	0,0
522,7476806640625;	477,25;	0,0;	0,0
522,821533203125;	576,0;	0,0;	0,0
522,8953857421875;	492,75;	0,0;	0,0
522,96923828125;	541,25;	0,0;	0,0
523,0430297851562;	912,25;	0,0;	0,0
523,1168823242188;	1931,5;	0,0;	0,0
523,190673828125;	1937,5;	0,0;	0,0
523,2644653320312;	674,75;	0,0;	0,0
523,3382568359375;	474,5;	0,0;	0,0
523,4119873046875;	456,0;	0,0;	0,0
523,4857788085938;	371,25;	0,0;	0,0
523,5595703125;	362,25;	0,0;	0,0
523,6332397460938;	347,25;	0,0;	0,0
523,7069702148438;	323,75;	0,0;	0,0
523,7807006835938;	324,0;	0,0;	0,0
523,8543701171875;	362,0;	0,0;	0,0
523,927978515625;	394,0;	0,0;	0,0
524,0016479492188;	381,5;	0,0;	0,0
524,0753173828125;	421,25;	0,0;	0,0
524,14892578125;	456,0;	0,0;	0,0
524,2225341796875;	364,5;	0,0;	0,0
524,2962036132812;	345,0;	0,0;	0,0
524,3698120117188;	344,25;	0,0;	0,0
524,443359375;	350,0;	0,0;	0,0
524,5169067382812;	375,5;	0,0;	0,0
524,5905151367188;	379,75;	0,0;	0,0
524,6640014648438;	363,5;	0,0;	0,0
524,7376098632812;	361,5;	0,0;	0,0
524,8110961914062;	373,0;	0,0;	0,0
524,8845825195312;	451,25;	0,0;	0,0
524,9580688476562;	438,75;	0,0;	0,0
525,0315551757812;	374,25;	0,0;	0,0
525,10498046875;	377,25;	0,0;	0,0
525,178466796875;	350,0;	0,0;	0,0
525,2518920898438;	396,5;	0,0;	0,0
525,3253173828125;	381,25;	0,0;	0,0
525,3987426757812;	403,5;	0,0;	0,0
525,47216796875;	369,5;	0,0;	0,0
525,5455322265625;	357,0;	0,0;	0,0
525,618896484375;	364,25;	0,0;	0,0
525,6922607421875;	372,5;	0,0;	0,0
525,765625;	362,75;	0,0;	0,0
525,8389892578125;	365,75;	0,0;	0,0
525,9122924804688;	397,5;	0,0;	0,0
525,9856567382812;	440,5;	0,0;	0,0
526,0588989257812;	479,25;	0,0;	0,0
526,1322021484375;	541,25;	0,0;	0,0
526,2054443359375;	605,25;	0,0;	0,0
526,2786865234375;	573,25;	0,0;	0,0
526,3519897460938;	578,75;	0,0;	0,0
526,4251098632812;	863,0;	0,0;	0,0
526,4984130859375;	1330,0;	0,0;	0,0
526,5715942382812;	1063,5;	0,0;	0,0
526,644775390625;	887,5;	0,0;	0,0
526,718017578125;	2061,75;	0,0;	0,0
526,7911376953125;	5081,0;	0,0;	0,0
526,8642578125;	4405,0;	0,0;	0,0
526,9374389648438;	1640,75;	0,0;	0,0
527,0105590820312;	544,25;	0,0;	0,0
527,0836791992188;	456,75;	0,0;	0,0
527,15673828125;	538,5;	0,0;	0,0
527,2298583984375;	481,0;	0,0;	0,0
527,3029174804688;	424,75;	0,0;	0,0
527,3760375976562;	393,0;	0,0;	0,0
527,4490356445312;	383,25;	0,0;	0,0
527,5220336914062;	404,75;	0,0;	0,0
527,5950927734375;	369,5;	0,0;	0,0
527,6680908203125;	383,25;	0,0;	0,0
527,7411499023438;	366,0;	0,0;	0,0
527,8140869140625;	405,0;	0,0;	0,0
527,8870849609375;	413,75;	0,0;	0,0
527,9600219726562;	521,25;	0,0;	0,0
528,032958984375;	669,5;	0,0;	0,0
528,1058959960938;	648,5;	0,0;	0,0
528,1788330078125;	788,5;	0,0;	0,0
528,251708984375;	850,25;	0,0;	0,0
528,3245849609375;	473,0;	0,0;	0,0
528,3974609375;	403,25;	0,0;	0,0
528,4703369140625;	386,25;	0,0;	0,0
528,543212890625;	353,75;	0,0;	0,0
528,6160278320312;	353,5;	0,0;	0,0
528,6888427734375;	367,0;	0,0;	0,0
528,7616577148438;	360,5;	0,0;	0,0
528,8344116210938;	346,5;	0,0;	0,0
528,9072265625;	363,75;	0,0;	0,0
528,97998046875;	359,25;	0,0;	0,0
529,0527954101562;	344,5;	0,0;	0,0
529,12548828125;	364,75;	0,0;	0,0
529,1982421875;	403,25;	0,0;	0,0
529,27099609375;	375,75;	0,0;	0,0
529,34375;	347,0;	0,0;	0,0
529,4163208007812;	348,25;	0,0;	0,0
529,4890747070312;	364,25;	0,0;	0,0
529,561767578125;	373,5;	0,0;	0,0
529,6343383789062;	374,25;	0,0;	0,0
529,70703125;	332,5;	0,0;	0,0
529,7796020507812;	379,0;	0,0;	0,0
529,8522338867188;	367,0;	0,0;	0,0
529,9249267578125;	395,25;	0,0;	0,0
529,9974365234375;	479,0;	0,0;	0,0
530,070068359375;	561,75;	0,0;	0,0
530,142578125;	519,0;	0,0;	0,0
530,2151489257812;	386,0;	0,0;	0,0
530,2876586914062;	366,5;	0,0;	0,0
530,3602294921875;	377,5;	0,0;	0,0
530,4326782226562;	370,75;	0,0;	0,0
530,5052490234375;	384,0;	0,0;	0,0
530,57763671875;	383,0;	0,0;	0,0
530,650146484375;	361,75;	0,0;	0,0
530,72265625;	360,75;	0,0;	0,0
530,7950439453125;	340,75;	0,0;	0,0
530,8674926757812;	358,5;	0,0;	0,0
530,93994140625;	357,0;	0,0;	0,0
531,0122680664062;	337,75;	0,0;	0,0
531,084716796875;	362,25;	0,0;	0,0
531,1571044921875;	357,25;	0,0;	0,0
531,2294311523438;	382,75;	0,0;	0,0
531,3018188476562;	366,0;	0,0;	0,0
531,3740844726562;	391,25;	0,0;	0,0
531,4464111328125;	387,5;	0,0;	0,0
531,518798828125;	441,0;	0,0;	0,0
531,591064453125;	392,75;	0,0;	0,0
531,6633911132812;	362,0;	0,0;	0,0
531,7356567382812;	364,5;	0,0;	0,0
531,807861328125;	381,75;	0,0;	0,0
531,880126953125;	409,5;	0,0;	0,0
531,9523315429688;	384,25;	0,0;	0,0
532,0245361328125;	400,0;	0,0;	0,0
532,0968017578125;	465,25;	0,0;	0,0
532,1689453125;	713,25;	0,0;	0,0
532,2411499023438;	1341,75;	0,0;	0,0
532,3133544921875;	1402,0;	0,0;	0,0
532,3854370117188;	687,0;	0,0;	0,0
532,4576416015625;	548,5;	0,0;	0,0
532,5297241210938;	1009,0;	0,0;	0,0
532,6018676757812;	2545,75;	0,0;	0,0
532,6739501953125;	3988,0;	0,0;	0,0
532,7459716796875;	1903,5;	0,0;	0,0
532,818115234375;	529,75;	0,0;	0,0
532,8901977539062;	407,5;	0,0;	0,0
532,9622192382812;	398,75;	0,0;	0,0
533,0342407226562;	380,5;	0,0;	0,0
533,1062622070312;	422,75;	0,0;	0,0
533,1782836914062;	426,25;	0,0;	0,0
533,2503051757812;	372,25;	0,0;	0,0
533,3222045898438;	366,25;	0,0;	0,0
533,3942260742188;	348,75;	0,0;	0,0
533,4661865234375;	367,25;	0,0;	0,0
533,5380859375;	392,0;	0,0;	0,0
533,6100463867188;	380,0;	0,0;	0,0
533,6819458007812;	419,0;	0,0;	0,0
533,7538452148438;	510,75;	0,0;	0,0
533,82568359375;	728,0;	0,0;	0,0
533,8976440429688;	926,5;	0,0;	0,0
533,9694213867188;	833,5;	0,0;	0,0
534,0413208007812;	536,5;	0,0;	0,0
534,1130981445312;	373,75;	0,0;	0,0
534,1849975585938;	393,0;	0,0;	0,0
534,2567749023438;	353,25;	0,0;	0,0
534,3284912109375;	371,25;	0,0;	0,0
534,4003295898438;	371,75;	0,0;	0,0
534,4721069335938;	415,25;	0,0;	0,0
534,5438842773438;	376,5;	0,0;	0,0
534,6156005859375;	384,5;	0,0;	0,0
534,6873779296875;	378,5;	0,0;	0,0
534,759033203125;	450,25;	0,0;	0,0
534,830810546875;	453,0;	0,0;	0,0
534,9024047851562;	410,25;	0,0;	0,0
534,97412109375;	353,25;	0,0;	0,0
535,0457763671875;	374,75;	0,0;	0,0
535,1173706054688;	387,5;	0,0;	0,0
535,1890869140625;	446,0;	0,0;	0,0
535,2607421875;	405,5;	0,0;	0,0
535,332275390625;	369,0;	0,0;	0,0
535,4038696289062;	345,75;	0,0;	0,0
535,4754638671875;	394,25;	0,0;	0,0
535,5469970703125;	395,5;	0,0;	0,0
535,6185913085938;	369,25;	0,0;	0,0
535,6901245117188;	370,5;	0,0;	0,0
535,7616577148438;	398,25;	0,0;	0,0
535,8331909179688;	398,0;	0,0;	0,0
535,9046630859375;	421,25;	0,0;	0,0
535,9761962890625;	419,0;	0,0;	0,0
536,047607421875;	422,75;	0,0;	0,0
536,1190185546875;	449,0;	0,0;	0,0
536,1905517578125;	518,5;	0,0;	0,0
536,2619018554688;	601,0;	0,0;	0,0
536,3333740234375;	768,0;	0,0;	0,0
536,4048461914062;	715,25;	0,0;	0,0
536,4761352539062;	614,0;	0,0;	0,0
536,5475463867188;	775,75;	0,0;	0,0
536,6189575195312;	808,0;	0,0;	0,0
536,6902465820312;	671,0;	0,0;	0,0
536,7615966796875;	763,5;	0,0;	0,0
536,8329467773438;	1065,5;	0,0;	0,0
536,9042358398438;	1427,25;	0,0;	0,0
536,9755859375;	2564,0;	0,0;	0,0
537,046875;	2215,0;	0,0;	0,0
537,1181030273438;	755,25;	0,0;	0,0
537,1893920898438;	452,25;	0,0;	0,0
537,2606201171875;	447,0;	0,0;	0,0
537,3319091796875;	420,0;	0,0;	0,0
537,403076171875;	377,5;	0,0;	0,0
537,4743041992188;	411,0;	0,0;	0,0
537,5454711914062;	429,5;	0,0;	0,0
537,6165771484375;	425,0;	0,0;	0,0
537,6878051757812;	406,5;	0,0;	0,0
537,7589721679688;	405,25;	0,0;	0,0
537,830078125;	443,0;	0,0;	0,0
537,9012451171875;	417,75;	0,0;	0,0
537,9723510742188;	456,0;	0,0;	0,0
538,0433959960938;	619,75;	0,0;	0,0
538,1145629882812;	906,0;	0,0;	0,0
538,1856079101562;	1218,5;	0,0;	0,0
538,2566528320312;	855,75;	0,0;	0,0
538,3276977539062;	478,5;	0,0;	0,0
538,398681640625;	438,25;	0,0;	0,0
538,4697265625;	431,5;	0,0;	0,0
538,5408325195312;	425,25;	0,0;	0,0
538,6117553710938;	435,25;	0,0;	0,0
538,6827392578125;	425,75;	0,0;	0,0
538,753662109375;	465,5;	0,0;	0,0
538,8246459960938;	453,75;	0,0;	0,0
538,8956298828125;	410,5;	0,0;	0,0
538,9664916992188;	455,0;	0,0;	0,0
539,0374145507812;	487,75;	0,0;	0,0
539,1083374023438;	601,25;	0,0;	0,0
539,1791381835938;	663,25;	0,0;	0,0
539,2500610351562;	542,25;	0,0;	0,0
539,3209228515625;	488,0;	0,0;	0,0
539,3917236328125;	511,75;	0,0;	0,0
539,4625854492188;	742,5;	0,0;	0,0
539,5333862304688;	1536,5;	0,0;	0,0
539,6041870117188;	1546,0;	0,0;	0,0
539,6749877929688;	725,0;	0,0;	0,0
539,7457275390625;	478,25;	0,0;	0,0
539,8165283203125;	516,75;	0,0;	0,0
539,8872680664062;	571,25;	0,0;	0,0
539,9580078125;	552,0;	0,0;	0,0
540,0286865234375;	546,5;	0,0;	0,0
540,0994873046875;	583,0;	0,0;	0,0
540,170166015625;	784,75;	0,0;	0,0
540,2408447265625;	1273,5;	0,0;	0,0
540,3114624023438;	1289,0;	0,0;	0,0
540,3821411132812;	1638,25;	0,0;	0,0
540,4528198242188;	1974,5;	0,0;	0,0
540,5233764648438;	1020,25;	0,0;	0,0
540,5940551757812;	490,75;	0,0;	0,0
540,6646728515625;	454,0;	0,0;	0,0
540,7351684570312;	472,5;	0,0;	0,0
540,8057861328125;	565,25;	0,0;	0,0
540,8763427734375;	706,5;	0,0;	0,0
540,9468383789062;	796,25;	0,0;	0,0
541,0174560546875;	669,0;	0,0;	0,0
541,087890625;	529,25;	0,0;	0,0
541,158447265625;	487,0;	0,0;	0,0
541,2289428710938;	630,25;	0,0;	0,0
541,2994384765625;	911,0;	0,0;	0,0
541,369873046875;	1128,0;	0,0;	0,0
541,4403686523438;	779,5;	0,0;	0,0
541,5107421875;	492,5;	0,0;	0,0
541,5811767578125;	443,5;	0,0;	0,0
541,6515502929688;	439,5;	0,0;	0,0
541,7219848632812;	399,0;	0,0;	0,0
541,7923583984375;	423,75;	0,0;	0,0
541,8627319335938;	424,75;	0,0;	0,0
541,93310546875;	455,25;	0,0;	0,0
542,0034790039062;	467,75;	0,0;	0,0
542,07373046875;	603,5;	0,0;	0,0
542,1441040039062;	764,25;	0,0;	0,0
542,21435546875;	1200,25;	0,0;	0,0
542,28466796875;	1161,0;	0,0;	0,0
542,3549194335938;	735,25;	0,0;	0,0
542,4251708984375;	486,25;	0,0;	0,0
542,4954833984375;	432,0;	0,0;	0,0
542,5657348632812;	463,5;	0,0;	0,0
542,6358642578125;	482,0;	0,0;	0,0
542,7061157226562;	729,5;	0,0;	0,0
542,7763671875;	1588,5;	0,0;	0,0
542,846435546875;	1995,5;	0,0;	0,0
542,9166870117188;	946,75;	0,0;	0,0
542,98681640625;	452,0;	0,0;	0,0
543,0569458007812;	435,25;	0,0;	0,0
543,1271362304688;	498,25;	0,0;	0,0
543,1971435546875;	664,75;	0,0;	0,0
543,267333984375;	1126,25;	0,0;	0,0
543,33740234375;	1222,5;	0,0;	0,0
543,407470703125;	654,5;	0,0;	0,0
543,4774780273438;	452,5;	0,0;	0,0
543,547607421875;	406,75;	0,0;	0,0
543,6175537109375;	417,5;	0,0;	0,0
543,6876220703125;	417,75;	0,0;	0,0
543,7576293945312;	380,25;	0,0;	0,0
543,8275756835938;	417,25;	0,0;	0,0
543,8975830078125;	390,75;	0,0;	0,0
543,9674682617188;	429,75;	0,0;	0,0
544,0374755859375;	425,75;	0,0;	0,0
544,107421875;	406,0;	0,0;	0,0
544,1773071289062;	472,5;	0,0;	0,0
544,2472534179688;	503,25;	0,0;	0,0
544,317138671875;	642,75;	0,0;	0,0
544,386962890625;	729,25;	0,0;	0,0
544,4568481445312;	1058,5;	0,0;	0,0
544,5266723632812;	1868,25;	0,0;	0,0
544,5965576171875;	1583,0;	0,0;	0,0
544,6663818359375;	612,25;	0,0;	0,0
544,7361450195312;	401,0;	0,0;	0,0
544,8060302734375;	416,75;	0,0;	0,0
544,8757934570312;	410,0;	0,0;	0,0
544,945556640625;	438,5;	0,0;	0,0
545,0153198242188;	450,0;	0,0;	0,0
545,0850830078125;	425,5;	0,0;	0,0
545,15478515625;	481,75;	0,0;	0,0
545,2244873046875;	545,5;	0,0;	0,0
545,294189453125;	770,25;	0,0;	0,0
545,3639526367188;	1307,0;	0,0;	0,0
545,43359375;	1651,75;	0,0;	0,0
545,5032348632812;	892,25;	0,0;	0,0
545,5729370117188;	484,25;	0,0;	0,0
545,6424560546875;	425,0;	0,0;	0,0
545,712158203125;	440,5;	0,0;	0,0
545,78173828125;	405,25;	0,0;	0,0
545,851318359375;	419,0;	0,0;	0,0
545,9208984375;	419,0;	0,0;	0,0
545,9905395507812;	449,0;	0,0;	0,0
546,0599975585938;	584,25;	0,0;	0,0
546,1295776367188;	645,5;	0,0;	0,0
546,1990966796875;	651,0;	0,0;	0,0
546,2686157226562;	509,5;	0,0;	0,0
546,338134765625;	429,0;	0,0;	0,0
546,4075317382812;	467,5;	0,0;	0,0
546,4771118164062;	471,25;	0,0;	0,0
546,5465698242188;	466,0;	0,0;	0,0
546,615966796875;	426,25;	0,0;	0,0
546,6853637695312;	438,5;	0,0;	0,0
546,7548217773438;	401,25;	0,0;	0,0
546,82421875;	410,0;	0,0;	0,0
546,8936157226562;	414,0;	0,0;	0,0
546,9630126953125;	425,5;	0,0;	0,0
547,0323486328125;	434,75;	0,0;	0,0
547,1016845703125;	452,5;	0,0;	0,0
547,1710205078125;	477,0;	0,0;	0,0
547,2403564453125;	498,0;	0,0;	0,0
547,3096923828125;	493,75;	0,0;	0,0
547,37890625;	474,75;	0,0;	0,0
547,4482421875;	542,25;	0,0;	0,0
547,5175170898438;	698,5;	0,0;	0,0
547,586669921875;	584,5;	0,0;	0,0
547,6559448242188;	476,25;	0,0;	0,0
547,7252197265625;	455,75;	0,0;	0,0
547,7943725585938;	433,0;	0,0;	0,0
547,8636474609375;	449,25;	0,0;	0,0
547,9327392578125;	481,25;	0,0;	0,0
548,001953125;	459,0;	0,0;	0,0
548,0711059570312;	441,75;	0,0;	0,0
548,1401977539062;	477,0;	0,0;	0,0
548,2093505859375;	446,0;	0,0;	0,0
548,2784423828125;	440,5;	0,0;	0,0
548,3475341796875;	439,5;	0,0;	0,0
548,4166259765625;	431,25;	0,0;	0,0
548,4857177734375;	442,0;	0,0;	0,0
548,5547485351562;	469,0;	0,0;	0,0
548,6238403320312;	520,25;	0,0;	0,0
548,6928100585938;	493,25;	0,0;	0,0
548,7619018554688;	467,0;	0,0;	0,0
548,8309326171875;	432,5;	0,0;	0,0
548,8998413085938;	456,0;	0,0;	0,0
548,9688720703125;	444,5;	0,0;	0,0
549,0377807617188;	453,5;	0,0;	0,0
549,1067504882812;	473,5;	0,0;	0,0
549,1756591796875;	464,75;	0,0;	0,0
549,2445678710938;	469,5;	0,0;	0,0
549,3135375976562;	459,25;	0,0;	0,0
549,3824462890625;	442,75;	0,0;	0,0
549,4512939453125;	466,25;	0,0;	0,0
549,5201416015625;	487,75;	0,0;	0,0
549,5890502929688;	615,25;	0,0;	0,0
549,6578369140625;	596,5;	0,0;	0,0
549,7266845703125;	501,75;	0,0;	0,0
549,7954711914062;	468,5;	0,0;	0,0
549,8642578125;	448,25;	0,0;	0,0
549,93310546875;	518,5;	0,0;	0,0
550,0017700195312;	609,25;	0,0;	0,0
550,070556640625;	551,25;	0,0;	0,0
550,1393432617188;	475,75;	0,0;	0,0
550,2080078125;	473,5;	0,0;	0,0
550,2767944335938;	460,75;	0,0;	0,0
550,345458984375;	523,0;	0,0;	0,0
550,4141235351562;	502,5;	0,0;	0,0
550,4828491210938;	620,25;	0,0;	0,0
550,5513916015625;	697,75;	0,0;	0,0
550,6201171875;	532,25;	0,0;	0,0
550,688720703125;	460,5;	0,0;	0,0
550,75732421875;	496,75;	0,0;	0,0
550,8259887695312;	476,0;	0,0;	0,0
550,89453125;	533,75;	0,0;	0,0
550,9630737304688;	481,0;	0,0;	0,0
551,0316772460938;	502,25;	0,0;	0,0
551,1002197265625;	500,25;	0,0;	0,0
551,1687622070312;	503,0;	0,0;	0,0
551,2373046875;	514,75;	0,0;	0,0
551,3057250976562;	498,0;	0,0;	0,0
551,374267578125;	515,0;	0,0;	0,0
551,4427490234375;	492,5;	0,0;	0,0
551,5111694335938;	472,0;	0,0;	0,0
551,5796508789062;	504,75;	0,0;	0,0
551,6480102539062;	483,5;	0,0;	0,0
551,7164916992188;	478,0;	0,0;	0,0
551,7849731445312;	465,25;	0,0;	0,0
551,8533325195312;	473,0;	0,0;	0,0
551,9216918945312;	521,75;	0,0;	0,0
551,9901123046875;	480,25;	0,0;	0,0
552,0584106445312;	477,0;	0,0;	0,0
552,1267700195312;	527,0;	0,0;	0,0
552,195068359375;	498,0;	0,0;	0,0
552,2633666992188;	496,75;	0,0;	0,0
552,3316650390625;	561,5;	0,0;	0,0
552,39990234375;	474,5;	0,0;	0,0
552,46826171875;	498,0;	0,0;	0,0
552,5364990234375;	514,5;	0,0;	0,0
552,6046752929688;	475,25;	0,0;	0,0
552,6729736328125;	522,75;	0,0;	0,0
552,7412109375;	492,25;	0,0;	0,0
552,809326171875;	511,5;	0,0;	0,0
552,8775634765625;	480,75;	0,0;	0,0
552,9457397460938;	494,5;	0,0;	0,0
553,0138549804688;	517,75;	0,0;	0,0
553,08203125;	533,0;	0,0;	0,0
553,150146484375;	539,75;	0,0;	0,0
553,2182006835938;	514,75;	0,0;	0,0
553,286376953125;	518,25;	0,0;	0,0
553,3544311523438;	662,25;	0,0;	0,0
553,4225463867188;	702,0;	0,0;	0,0
553,4906005859375;	586,75;	0,0;	0,0
553,55859375;	529,75;	0,0;	0,0
553,626708984375;	529,0;	0,0;	0,0
553,6947021484375;	579,5;	0,0;	0,0
553,7626953125;	549,0;	0,0;	0,0
553,8306884765625;	518,25;	0,0;	0,0
553,8986206054688;	540,25;	0,0;	0,0
553,9666137695312;	536,0;	0,0;	0,0
554,0346069335938;	529,75;	0,0;	0,0
554,1024780273438;	565,0;	0,0;	0,0
554,1704711914062;	593,0;	0,0;	0,0
554,2384033203125;	588,0;	0,0;	0,0
554,3062133789062;	571,0;	0,0;	0,0
554,3740844726562;	576,75;	0,0;	0,0
554,4419555664062;	531,0;	0,0;	0,0
554,509765625;	513,5;	0,0;	0,0
554,57763671875;	540,0;	0,0;	0,0
554,6454467773438;	530,5;	0,0;	0,0
554,7133178710938;	532,75;	0,0;	0,0
554,7810668945312;	535,5;	0,0;	0,0
554,8488159179688;	504,25;	0,0;	0,0
554,9166259765625;	547,0;	0,0;	0,0
554,9843139648438;	525,25;	0,0;	0,0
555,0521240234375;	518,25;	0,0;	0,0
555,119873046875;	543,75;	0,0;	0,0
555,1875;	573,5;	0,0;	0,0
555,2552490234375;	566,0;	0,0;	0,0
555,3229370117188;	592,5;	0,0;	0,0
555,390625;	551,0;	0,0;	0,0
555,458251953125;	519,75;	0,0;	0,0
555,52587890625;	499,25;	0,0;	0,0
555,593505859375;	513,5;	0,0;	0,0
555,6611328125;	546,75;	0,0;	0,0
555,7286987304688;	511,0;	0,0;	0,0
555,7963256835938;	501,75;	0,0;	0,0
555,8638916015625;	530,0;	0,0;	0,0
555,931396484375;	547,75;	0,0;	0,0
555,9989624023438;	504,25;	0,0;	0,0
556,0665283203125;	554,0;	0,0;	0,0
556,1339721679688;	577,25;	0,0;	0,0
556,2014770507812;	574,5;	0,0;	0,0
556,26904296875;	537,25;	0,0;	0,0
556,3364868164062;	537,0;	0,0;	0,0
556,4039306640625;	599,0;	0,0;	0,0
556,4713134765625;	548,0;	0,0;	0,0
556,538818359375;	536,75;	0,0;	0,0
556,6062622070312;	552,0;	0,0;	0,0
556,673583984375;	533,0;	0,0;	0,0
556,7410278320312;	662,5;	0,0;	0,0
556,8084716796875;	866,5;	0,0;	0,0
556,875732421875;	764,25;	0,0;	0,0
556,943115234375;	636,0;	0,0;	0,0
557,010498046875;	602,0;	0,0;	0,0
557,0776977539062;	867,25;	0,0;	0,0
557,1450805664062;	1160,75;	0,0;	0,0
557,2123413085938;	907,5;	0,0;	0,0
557,2796020507812;	563,5;	0,0;	0,0
557,346923828125;	571,0;	0,0;	0,0
557,4141235351562;	604,0;	0,0;	0,0
557,4813232421875;	642,25;	0,0;	0,0
557,5485229492188;	572,75;	0,0;	0,0
557,6157836914062;	485,25;	0,0;	0,0
557,6829833984375;	451,0;	0,0;	0,0
557,7501831054688;	464,5;	0,0;	0,0
557,8173217773438;	478,5;	0,0;	0,0
557,8844604492188;	474,25;	0,0;	0,0
557,9515991210938;	491,5;	0,0;	0,0
558,0187377929688;	522,0;	0,0;	0,0
558,0858764648438;	534,75;	0,0;	0,0
558,1528930664062;	538,75;	0,0;	0,0
558,219970703125;	434,5;	0,0;	0,0
558,2869873046875;	503,25;	0,0;	0,0
558,3540649414062;	543,5;	0,0;	0,0
558,421142578125;	709,25;	0,0;	0,0
558,4881591796875;	1293,25;	0,0;	0,0
558,55517578125;	1568,75;	0,0;	0,0
558,6221923828125;	1094,0;	0,0;	0,0
558,6891479492188;	956,25;	0,0;	0,0
558,7561645507812;	1014,0;	0,0;	0,0
558,8230590820312;	795,0;	0,0;	0,0
558,8900146484375;	575,25;	0,0;	0,0
558,9569702148438;	523,0;	0,0;	0,0
559,0238037109375;	498,0;	0,0;	0,0
559,0906982421875;	494,5;	0,0;	0,0
559,1576538085938;	529,5;	0,0;	0,0
559,2244262695312;	573,5;	0,0;	0,0
559,2913208007812;	799,0;	0,0;	0,0
559,358154296875;	691,5;	0,0;	0,0
559,4249877929688;	532,75;	0,0;	0,0
559,4918212890625;	511,25;	0,0;	0,0
559,5586547851562;	525,25;	0,0;	0,0
559,6253662109375;	631,5;	0,0;	0,0
559,692138671875;	711,25;	0,0;	0,0
559,7589111328125;	690,25;	0,0;	0,0
559,8256225585938;	538,5;	0,0;	0,0
559,8923950195312;	499,0;	0,0;	0,0
559,9590454101562;	550,75;	0,0;	0,0
560,0257568359375;	560,5;	0,0;	0,0
560,0924682617188;	650,5;	0,0;	0,0
560,1591186523438;	742,75;	0,0;	0,0
560,225830078125;	611,0;	0,0;	0,0
560,29248046875;	487,75;	0,0;	0,0
560,3590698242188;	452,75;	0,0;	0,0
560,4256591796875;	492,75;	0,0;	0,0
560,4921875;	457,75;	0,0;	0,0
560,5587768554688;	467,0;	0,0;	0,0
560,6254272460938;	465,25;	0,0;	0,0
560,6919555664062;	444,25;	0,0;	0,0
560,7584838867188;	456,25;	0,0;	0,0
560,824951171875;	424,75;	0,0;	0,0
560,8914794921875;	481,5;	0,0;	0,0
560,9580688476562;	450,5;	0,0;	0,0
561,0245361328125;	487,0;	0,0;	0,0
561,0909423828125;	497,5;	0,0;	0,0
561,157470703125;	529,75;	0,0;	0,0
561,2238159179688;	572,75;	0,0;	0,0
561,2903442382812;	744,75;	0,0;	0,0
561,3567504882812;	1353,5;	0,0;	0,0
561,4231567382812;	2203,25;	0,0;	0,0
561,489501953125;	1542,75;	0,0;	0,0
561,5558471679688;	779,25;	0,0;	0,0
561,6222534179688;	544,75;	0,0;	0,0
561,6885986328125;	538,25;	0,0;	0,0
561,7548828125;	495,5;	0,0;	0,0
561,8211669921875;	545,75;	0,0;	0,0
561,8875122070312;	531,0;	0,0;	0,0
561,9537963867188;	517,75;	0,0;	0,0
562,0200805664062;	504,0;	0,0;	0,0
562,0863647460938;	512,25;	0,0;	0,0
562,152587890625;	562,25;	0,0;	0,0
562,2188110351562;	598,5;	0,0;	0,0
562,2849731445312;	740,25;	0,0;	0,0
562,3511962890625;	698,0;	0,0;	0,0
562,4174194335938;	625,0;	0,0;	0,0
562,4835205078125;	527,0;	0,0;	0,0
562,5496826171875;	516,75;	0,0;	0,0
562,6159057617188;	497,5;	0,0;	0,0
562,6820068359375;	529,0;	0,0;	0,0
562,748046875;	475,5;	0,0;	0,0
562,814208984375;	481,5;	0,0;	0,0
562,8803100585938;	477,25;	0,0;	0,0
562,9463500976562;	507,75;	0,0;	0,0
563,0123901367188;	502,0;	0,0;	0,0
563,0784301757812;	503,25;	0,0;	0,0
563,14453125;	526,25;	0,0;	0,0
563,21044921875;	555,0;	0,0;	0,0
563,2764892578125;	556,75;	0,0;	0,0
563,3424682617188;	538,5;	0,0;	0,0
563,408447265625;	560,5;	0,0;	0,0
563,4744262695312;	546,0;	0,0;	0,0
563,5404052734375;	570,5;	0,0;	0,0
563,6062622070312;	546,25;	0,0;	0,0
563,6722412109375;	589,25;	0,0;	0,0
563,7380981445312;	561,75;	0,0;	0,0
563,8040161132812;	545,5;	0,0;	0,0
563,869873046875;	541,25;	0,0;	0,0
563,9356689453125;	508,5;	0,0;	0,0
564,0015258789062;	537,0;	0,0;	0,0
564,0673217773438;	490,25;	0,0;	0,0
564,1331787109375;	492,75;	0,0;	0,0
564,1990356445312;	532,5;	0,0;	0,0
564,2647705078125;	534,75;	0,0;	0,0
564,3305053710938;	500,5;	0,0;	0,0
564,3963012695312;	506,5;	0,0;	0,0
564,4620361328125;	528,25;	0,0;	0,0
564,5277709960938;	562,75;	0,0;	0,0
564,593505859375;	502,25;	0,0;	0,0
564,6591796875;	533,75;	0,0;	0,0
564,7249145507812;	535,25;	0,0;	0,0
564,7904663085938;	582,0;	0,0;	0,0
564,856201171875;	531,25;	0,0;	0,0
564,9218139648438;	546,0;	0,0;	0,0
564,9874877929688;	550,75;	0,0;	0,0
565,0530395507812;	553,0;	0,0;	0,0
565,1187133789062;	536,5;	0,0;	0,0
565,1842651367188;	532,5;	0,0;	0,0
565,2498168945312;	536,0;	0,0;	0,0
565,3153686523438;	557,75;	0,0;	0,0
565,3809204101562;	617,5;	0,0;	0,0
565,4464721679688;	606,25;	0,0;	0,0
565,511962890625;	541,75;	0,0;	0,0
565,5774536132812;	600,5;	0,0;	0,0
565,6429443359375;	617,25;	0,0;	0,0
565,7083740234375;	760,25;	0,0;	0,0
565,7738647460938;	773,5;	0,0;	0,0
565,83935546875;	613,75;	0,0;	0,0
565,9047241210938;	568,25;	0,0;	0,0
565,9701538085938;	522,5;	0,0;	0,0
566,0355834960938;	549,0;	0,0;	0,0
566,1009521484375;	657,25;	0,0;	0,0
566,1663208007812;	579,25;	0,0;	0,0
566,2316284179688;	591,5;	0,0;	0,0
566,2969970703125;	505,25;	0,0;	0,0
566,3623657226562;	535,5;	0,0;	0,0
566,4276123046875;	574,0;	0,0;	0,0
566,4929809570312;	594,5;	0,0;	0,0
566,5582275390625;	549,25;	0,0;	0,0
566,6234741210938;	555,5;	0,0;	0,0
566,688720703125;	557,75;	0,0;	0,0
566,7540283203125;	555,5;	0,0;	0,0
566,8192138671875;	570,75;	0,0;	0,0
566,8843994140625;	553,5;	0,0;	0,0
566,9495849609375;	525,75;	0,0;	0,0
567,0147705078125;	549,75;	0,0;	0,0
567,0799560546875;	532,75;	0,0;	0,0
567,1451416015625;	536,25;	0,0;	0,0
567,2102661132812;	518,75;	0,0;	0,0
567,2753295898438;	552,25;	0,0;	0,0
567,3405151367188;	553,75;	0,0;	0,0
567,4055786132812;	558,75;	0,0;	0,0
567,4706420898438;	545,0;	0,0;	0,0
567,5357055664062;	522,75;	0,0;	0,0
567,600830078125;	517,0;	0,0;	0,0
567,6658325195312;	535,25;	0,0;	0,0
567,7308959960938;	616,75;	0,0;	0,0
567,7958374023438;	594,0;	0,0;	0,0
567,86083984375;	591,25;	0,0;	0,0
567,9258422851562;	594,0;	0,0;	0,0
567,9907836914062;	618,0;	0,0;	0,0
568,0557250976562;	725,25;	0,0;	0,0
568,1207275390625;	869,5;	0,0;	0,0
568,185546875;	911,0;	0,0;	0,0
568,25048828125;	779,5;	0,0;	0,0
568,3153686523438;	729,5;	0,0;	0,0
568,3802490234375;	695,5;	0,0;	0,0
568,4451293945312;	695,75;	0,0;	0,0
568,5100708007812;	722,5;	0,0;	0,0
568,5748291015625;	824,25;	0,0;	0,0
568,6396484375;	1079,75;	0,0;	0,0
568,7044677734375;	1295,25;	0,0;	0,0
568,769287109375;	1183,25;	0,0;	0,0
568,8340454101562;	910,75;	0,0;	0,0
568,8987426757812;	754,5;	0,0;	0,0
568,9635009765625;	737,75;	0,0;	0,0
569,0282592773438;	645,0;	0,0;	0,0
569,0929565429688;	651,5;	0,0;	0,0
569,15771484375;	604,75;	0,0;	0,0
569,222412109375;	561,75;	0,0;	0,0
569,2870483398438;	554,75;	0,0;	0,0
569,3517456054688;	584,0;	0,0;	0,0
569,4163818359375;	514,75;	0,0;	0,0
569,4810180664062;	548,75;	0,0;	0,0
569,5455932617188;	542,25;	0,0;	0,0
569,6102294921875;	549,75;	0,0;	0,0
569,6748657226562;	562,0;	0,0;	0,0
569,7393188476562;	546,75;	0,0;	0,0
569,803955078125;	538,25;	0,0;	0,0
569,8685302734375;	566,5;	0,0;	0,0
569,9330444335938;	542,75;	0,0;	0,0
569,9974975585938;	569,0;	0,0;	0,0
570,0620727539062;	568,75;	0,0;	0,0
570,1265258789062;	552,0;	0,0;	0,0
570,1910400390625;	530,75;	0,0;	0,0
570,2554931640625;	532,75;	0,0;	0,0
570,3198852539062;	568,0;	0,0;	0,0
570,3843383789062;	575,25;	0,0;	0,0
570,44873046875;	584,0;	0,0;	0,0
570,51318359375;	553,75;	0,0;	0,0
570,5775756835938;	585,75;	0,0;	0,0
570,6419067382812;	560,0;	0,0;	0,0
570,706298828125;	550,5;	0,0;	0,0
570,7706298828125;	599,0;	0,0;	0,0
570,8349609375;	647,75;	0,0;	0,0
570,8992919921875;	575,75;	0,0;	0,0
570,963623046875;	550,5;	0,0;	0,0
571,02783203125;	522,75;	0,0;	0,0
571,0921020507812;	501,0;	0,0;	0,0
571,1563110351562;	551,25;	0,0;	0,0
571,2206420898438;	516,25;	0,0;	0,0
571,2848510742188;	549,25;	0,0;	0,0
571,3489990234375;	547,75;	0,0;	0,0
571,4132080078125;	560,5;	0,0;	0,0
571,4774169921875;	518,5;	0,0;	0,0
571,5415649414062;	526,0;	0,0;	0,0
571,6057739257812;	512,0;	0,0;	0,0
571,6698608398438;	548,75;	0,0;	0,0
571,7340087890625;	538,75;	0,0;	0,0
571,7981567382812;	510,25;	0,0;	0,0
571,8621826171875;	505,0;	0,0;	0,0
571,92626953125;	491,0;	0,0;	0,0
571,9904174804688;	506,25;	0,0;	0,0
572,0543823242188;	505,75;	0,0;	0,0
572,1184692382812;	516,5;	0,0;	0,0
572,1824951171875;	522,0;	0,0;	0,0
572,2464599609375;	530,0;	0,0;	0,0
572,3104858398438;	494,5;	0,0;	0,0
572,3744506835938;	504,25;	0,0;	0,0
572,4384155273438;	529,75;	0,0;	0,0
572,5023803710938;	543,0;	0,0;	0,0
572,5662841796875;	528,0;	0,0;	0,0
572,6301879882812;	512,25;	0,0;	0,0
572,6941528320312;	528,5;	0,0;	0,0
572,7579956054688;	511,25;	0,0;	0,0
572,8218383789062;	503,0;	0,0;	0,0
572,8856811523438;	484,0;	0,0;	0,0
572,9495849609375;	506,0;	0,0;	0,0
573,013427734375;	526,25;	0,0;	0,0
573,0772705078125;	525,5;	0,0;	0,0
573,1410522460938;	518,0;	0,0;	0,0
573,204833984375;	522,5;	0,0;	0,0
573,2686157226562;	506,0;	0,0;	0,0
573,3323364257812;	509,0;	0,0;	0,0
573,3961181640625;	475,75;	0,0;	0,0
573,4598388671875;	474,0;	0,0;	0,0
573,5235595703125;	516,25;	0,0;	0,0
573,5872192382812;	501,5;	0,0;	0,0
573,6509399414062;	450,0;	0,0;	0,0
573,714599609375;	491,75;	0,0;	0,0
573,7781982421875;	498,5;	0,0;	0,0
573,8418579101562;	478,0;	0,0;	0,0
573,905517578125;	472,25;	0,0;	0,0
573,9691162109375;	509,5;	0,0;	0,0
574,0327758789062;	507,25;	0,0;	0,0
574,0963745117188;	511,25;	0,0;	0,0
574,1598510742188;	483,5;	0,0;	0,0
574,2234497070312;	504,5;	0,0;	0,0
574,2869873046875;	489,25;	0,0;	0,0
574,3504638671875;	524,5;	0,0;	0,0
574,4140014648438;	476,5;	0,0;	0,0
574,4775390625;	481,25;	0,0;	0,0
574,5409545898438;	507,75;	0,0;	0,0
574,6044921875;	505,0;	0,0;	0,0
574,6679077148438;	539,25;	0,0;	0,0
574,7313232421875;	505,75;	0,0;	0,0
574,7947998046875;	493,5;	0,0;	0,0
574,858154296875;	508,75;	0,0;	0,0
574,9215698242188;	480,5;	0,0;	0,0
574,98486328125;	502,5;	0,0;	0,0
575,04833984375;	522,75;	0,0;	0,0
575,1116943359375;	566,25;	0,0;	0,0
575,1749877929688;	596,75;	0,0;	0,0
575,2383422851562;	535,75;	0,0;	0,0
575,3016357421875;	551,25;	0,0;	0,0
575,3648681640625;	498,75;	0,0;	0,0
575,42822265625;	466,5;	0,0;	0,0
575,491455078125;	520,75;	0,0;	0,0
575,5546264648438;	520,75;	0,0;	0,0
575,617919921875;	475,0;	0,0;	0,0
575,6810913085938;	461,75;	0,0;	0,0
575,7442626953125;	489,75;	0,0;	0,0
575,8074951171875;	479,75;	0,0;	0,0
575,8706665039062;	522,75;	0,0;	0,0
575,933837890625;	498,5;	0,0;	0,0
575,9969482421875;	487,25;	0,0;	0,0
576,06005859375;	515,75;	0,0;	0,0
576,1232299804688;	606,75;	0,0;	0,0
576,186279296875;	611,25;	0,0;	0,0
576,2493896484375;	559,25;	0,0;	0,0
576,3125;	475,5;	0,0;	0,0
576,37548828125;	484,75;	0,0;	0,0
576,4385375976562;	494,75;	0,0;	0,0
576,5015869140625;	515,0;	0,0;	0,0
576,5645751953125;	503,5;	0,0;	0,0
576,6275634765625;	492,75;	0,0;	0,0
576,6904907226562;	507,75;	0,0;	0,0
576,7534790039062;	505,75;	0,0;	0,0
576,8164672851562;	509,5;	0,0;	0,0
576,87939453125;	489,25;	0,0;	0,0
576,9423217773438;	492,75;	0,0;	0,0
577,0052490234375;	490,25;	0,0;	0,0
577,068115234375;	486,75;	0,0;	0,0
577,1309814453125;	484,75;	0,0;	0,0
577,1939086914062;	519,0;	0,0;	0,0
577,2567138671875;	485,75;	0,0;	0,0
577,3195190429688;	517,5;	0,0;	0,0
577,38232421875;	512,25;	0,0;	0,0
577,4451293945312;	496,75;	0,0;	0,0
577,5079956054688;	504,5;	0,0;	0,0
577,5706787109375;	496,75;	0,0;	0,0
577,6334838867188;	447,25;	0,0;	0,0
577,6962890625;	481,5;	0,0;	0,0
577,7589721679688;	487,25;	0,0;	0,0
577,8216552734375;	516,25;	0,0;	0,0
577,8843994140625;	512,25;	0,0;	0,0
577,947021484375;	536,5;	0,0;	0,0
578,009765625;	563,75;	0,0;	0,0
578,0723876953125;	546,0;	0,0;	0,0
578,135009765625;	588,5;	0,0;	0,0
578,1976928710938;	519,5;	0,0;	0,0
578,2601928710938;	484,25;	0,0;	0,0
578,3228149414062;	508,75;	0,0;	0,0
578,3854370117188;	509,0;	0,0;	0,0
578,447998046875;	517,25;	0,0;	0,0
578,5105590820312;	509,75;	0,0;	0,0
578,5731201171875;	496,5;	0,0;	0,0
578,6356201171875;	496,75;	0,0;	0,0
578,6981811523438;	492,5;	0,0;	0,0
578,7605590820312;	553,5;	0,0;	0,0
578,8231201171875;	600,75;	0,0;	0,0
578,8855590820312;	576,75;	0,0;	0,0
578,9479370117188;	589,25;	0,0;	0,0
579,0104370117188;	553,25;	0,0;	0,0
579,0728149414062;	534,75;	0,0;	0,0
579,1351928710938;	539,25;	0,0;	0,0
579,1976318359375;	502,75;	0,0;	0,0
579,260009765625;	556,0;	0,0;	0,0
579,3223266601562;	561,0;	0,0;	0,0
579,3847045898438;	488,25;	0,0;	0,0
579,447021484375;	516,5;	0,0;	0,0
579,5093383789062;	500,75;	0,0;	0,0
579,5716552734375;	506,5;	0,0;	0,0
579,6339111328125;	552,5;	0,0;	0,0
579,6962280273438;	509,5;	0,0;	0,0
579,7583618164062;	513,25;	0,0;	0,0
579,8206787109375;	489,75;	0,0;	0,0
579,8829345703125;	539,75;	0,0;	0,0
579,9451293945312;	561,25;	0,0;	0,0
580,0072631835938;	564,25;	0,0;	0,0
580,0695190429688;	649,5;	0,0;	0,0
580,131591796875;	555,75;	0,0;	0,0
580,1937866210938;	506,75;	0,0;	0,0
580,2559204101562;	527,5;	0,0;	0,0
580,3180541992188;	529,0;	0,0;	0,0
580,3801879882812;	518,25;	0,0;	0,0
580,4421997070312;	548,75;	0,0;	0,0
580,5043334960938;	541,75;	0,0;	0,0
580,56640625;	545,25;	0,0;	0,0
580,62841796875;	543,0;	0,0;	0,0
580,6904907226562;	600,5;	0,0;	0,0
580,7525024414062;	572,25;	0,0;	0,0
580,814453125;	546,25;	0,0;	0,0
580,87646484375;	511,0;	0,0;	0,0
580,9384765625;	532,0;	0,0;	0,0
581,0003662109375;	560,75;	0,0;	0,0
581,0623779296875;	566,5;	0,0;	0,0
581,124267578125;	542,0;	0,0;	0,0
581,1861572265625;	539,5;	0,0;	0,0
581,2481079101562;	504,5;	0,0;	0,0
581,3099365234375;	552,75;	0,0;	0,0
581,371826171875;	565,25;	0,0;	0,0
581,4336547851562;	539,5;	0,0;	0,0
581,4954833984375;	558,25;	0,0;	0,0
581,557373046875;	534,25;	0,0;	0,0
581,619140625;	537,75;	0,0;	0,0
581,680908203125;	544,0;	0,0;	0,0
581,7427368164062;	570,25;	0,0;	0,0
581,804443359375;	576,5;	0,0;	0,0
581,8662109375;	581,0;	0,0;	0,0
581,9279174804688;	508,75;	0,0;	0,0
581,9896850585938;	558,0;	0,0;	0,0
582,0513916015625;	554,5;	0,0;	0,0
582,113037109375;	551,75;	0,0;	0,0
582,1747436523438;	575,5;	0,0;	0,0
582,2363891601562;	596,25;	0,0;	0,0
582,2979736328125;	569,5;	0,0;	0,0
582,359619140625;	579,25;	0,0;	0,0
582,4212646484375;	560,25;	0,0;	0,0
582,4828491210938;	587,75;	0,0;	0,0
582,5444946289062;	563,5;	0,0;	0,0
582,6060180664062;	549,75;	0,0;	0,0
582,6675415039062;	566,0;	0,0;	0,0
582,7290649414062;	565,0;	0,0;	0,0
582,7905883789062;	560,75;	0,0;	0,0
582,8521118164062;	572,25;	0,0;	0,0
582,9136352539062;	573,75;	0,0;	0,0
582,9750366210938;	575,5;	0,0;	0,0
583,0365600585938;	553,5;	0,0;	0,0
583,0980224609375;	596,75;	0,0;	0,0
583,159423828125;	580,5;	0,0;	0,0
583,2208862304688;	581,75;	0,0;	0,0
583,2822875976562;	596,25;	0,0;	0,0
583,3436279296875;	582,25;	0,0;	0,0
583,405029296875;	584,25;	0,0;	0,0
583,46630859375;	538,75;	0,0;	0,0
583,5277099609375;	535,25;	0,0;	0,0
583,5890502929688;	593,0;	0,0;	0,0
583,6503295898438;	558,5;	0,0;	0,0
583,711669921875;	560,0;	0,0;	0,0
583,77294921875;	585,75;	0,0;	0,0
583,8341674804688;	551,5;	0,0;	0,0
583,8955078125;	571,0;	0,0;	0,0
583,9567260742188;	547,25;	0,0;	0,0
584,0179443359375;	561,0;	0,0;	0,0
584,0791015625;	596,25;	0,0;	0,0
584,1403198242188;	575,75;	0,0;	0,0
584,2014770507812;	580,5;	0,0;	0,0
584,2626342773438;	555,0;	0,0;	0,0
584,3237915039062;	577,5;	0,0;	0,0
584,3849487304688;	589,0;	0,0;	0,0
584,4459838867188;	567,75;	0,0;	0,0
584,5071411132812;	571,75;	0,0;	0,0
584,5682373046875;	593,5;	0,0;	0,0
584,6293334960938;	601,25;	0,0;	0,0
584,6903076171875;	579,0;	0,0;	0,0
584,7514038085938;	577,25;	0,0;	0,0
584,8123779296875;	597,25;	0,0;	0,0
584,8734130859375;	577,75;	0,0;	0,0
584,9344482421875;	570,5;	0,0;	0,0
584,9954223632812;	606,5;	0,0;	0,0
585,056396484375;	594,5;	0,0;	0,0
585,1173095703125;	610,0;	0,0;	0,0
585,1782836914062;	606,75;	0,0;	0,0
585,2391967773438;	552,75;	0,0;	0,0
585,3001098632812;	587,25;	0,0;	0,0
585,3609619140625;	607,25;	0,0;	0,0
585,4219360351562;	588,5;	0,0;	0,0
585,4827270507812;	623,25;	0,0;	0,0
585,5435791015625;	700,25;	0,0;	0,0
585,6044311523438;	813,5;	0,0;	0,0
585,6652221679688;	731,5;	0,0;	0,0
585,72607421875;	680,25;	0,0;	0,0
585,7868041992188;	682,0;	0,0;	0,0
585,8475952148438;	644,5;	0,0;	0,0
585,9083251953125;	677,25;	0,0;	0,0
585,9690551757812;	653,25;	0,0;	0,0
586,02978515625;	661,0;	0,0;	0,0
586,090576171875;	724,0;	0,0;	0,0
586,1511840820312;	668,75;	0,0;	0,0
586,2118530273438;	673,0;	0,0;	0,0
586,2725830078125;	650,0;	0,0;	0,0
586,3331909179688;	665,0;	0,0;	0,0
586,393798828125;	673,5;	0,0;	0,0
586,4544067382812;	634,25;	0,0;	0,0
586,5150146484375;	654,5;	0,0;	0,0
586,57568359375;	690,5;	0,0;	0,0
586,6361694335938;	666,5;	0,0;	0,0
586,6967163085938;	745,25;	0,0;	0,0
586,7573852539062;	721,5;	0,0;	0,0
586,8178100585938;	671,75;	0,0;	0,0
586,8783569335938;	683,75;	0,0;	0,0
586,9388427734375;	728,75;	0,0;	0,0
586,9993896484375;	740,0;	0,0;	0,0
587,0598754882812;	737,75;	0,0;	0,0
587,1202392578125;	743,25;	0,0;	0,0
587,1807250976562;	732,75;	0,0;	0,0
587,2410888671875;	771,75;	0,0;	0,0
587,301513671875;	789,5;	0,0;	0,0
587,3619384765625;	842,25;	0,0;	0,0
587,4223022460938;	810,5;	0,0;	0,0
587,482666015625;	829,25;	0,0;	0,0
587,5430297851562;	796,75;	0,0;	0,0
587,6033325195312;	845,75;	0,0;	0,0
587,6636352539062;	882,0;	0,0;	0,0
587,7239990234375;	931,25;	0,0;	0,0
587,7841796875;	928,5;	0,0;	0,0
587,8445434570312;	1050,25;	0,0;	0,0
587,90478515625;	1063,75;	0,0;	0,0
587,9649658203125;	1121,0;	0,0;	0,0
588,0252075195312;	1117,0;	0,0;	0,0
588,08544921875;	1204,75;	0,0;	0,0
588,1456298828125;	1357,5;	0,0;	0,0
588,205810546875;	1548,25;	0,0;	0,0
588,2659301757812;	1650,5;	0,0;	0,0
588,3261108398438;	1941,0;	0,0;	0,0
588,3862915039062;	2214,75;	0,0;	0,0
588,4464111328125;	2830,25;	0,0;	0,0
588,5065307617188;	3689,0;	0,0;	0,0
588,5665893554688;	4929,75;	0,0;	0,0
588,6266479492188;	7631,0;	0,0;	0,0
588,6867065429688;	12186,25;	0,0;	0,0
588,7467041015625;	16383,75;	0,0;	0,0
588,8067626953125;	16383,75;	0,0;	0,0
588,8667602539062;	16383,75;	0,0;	0,0
588,9267578125;	16383,75;	0,0;	0,0
588,9867553710938;	16383,75;	0,0;	0,0
589,0467529296875;	12818,25;	0,0;	0,0
589,106689453125;	6748,5;	0,0;	0,0
589,1666259765625;	5925,5;	0,0;	0,0
589,2265625;	6536,25;	0,0;	0,0
589,2864379882812;	9361,25;	0,0;	0,0
589,3463745117188;	15836,5;	0,0;	0,0
589,4061889648438;	16383,75;	0,0;	0,0
589,466064453125;	16383,75;	0,0;	0,0
589,5259399414062;	16383,75;	0,0;	0,0
589,5857543945312;	11604,5;	0,0;	0,0
589,6455688476562;	5793,25;	0,0;	0,0
589,7053833007812;	3730,25;	0,0;	0,0
589,76513671875;	2888,0;	0,0;	0,0
589,824951171875;	2222,75;	0,0;	0,0
589,8847045898438;	1969,75;	0,0;	0,0
589,9443969726562;	1724,5;	0,0;	0,0
590,004150390625;	1516,5;	0,0;	0,0
590,0638427734375;	1446,5;	0,0;	0,0
590,12353515625;	1383,75;	0,0;	0,0
590,1832275390625;	1276,75;	0,0;	0,0
590,2428588867188;	1153,75;	0,0;	0,0
590,302490234375;	1130,25;	0,0;	0,0
590,3621215820312;	1083,75;	0,0;	0,0
590,4217529296875;	1079,75;	0,0;	0,0
590,4813842773438;	1065,75;	0,0;	0,0
590,5409545898438;	1024,75;	0,0;	0,0
590,6005249023438;	958,0;	0,0;	0,0
590,6600952148438;	1021,75;	0,0;	0,0
590,7196044921875;	925,25;	0,0;	0,0
590,7791137695312;	867,75;	0,0;	0,0
590,8386840820312;	879,75;	0,0;	0,0
590,8981323242188;	901,5;	0,0;	0,0
590,9576416015625;	923,75;	0,0;	0,0
591,0170288085938;	916,0;	0,0;	0,0
591,0765380859375;	868,25;	0,0;	0,0
591,135986328125;	949,25;	0,0;	0,0
591,1953735351562;	954,25;	0,0;	0,0
591,2547607421875;	988,25;	0,0;	0,0
591,314208984375;	953,5;	0,0;	0,0
591,37353515625;	872,5;	0,0;	0,0
591,4329223632812;	866,5;	0,0;	0,0
591,4922485351562;	796,5;	0,0;	0,0
591,551513671875;	811,5;	0,0;	0,0
591,6109008789062;	777,25;	0,0;	0,0
591,670166015625;	774,75;	0,0;	0,0
591,7294921875;	802,75;	0,0;	0,0
591,7887573242188;	810,25;	0,0;	0,0
591,847900390625;	786,75;	0,0;	0,0
591,9071655273438;	804,0;	0,0;	0,0
591,9664306640625;	755,75;	0,0;	0,0
592,025634765625;	789,25;	0,0;	0,0
592,0847778320312;	761,0;	0,0;	0,0
592,1439819335938;	791,75;	0,0;	0,0
592,203125;	741,0;	0,0;	0,0
592,2622680664062;	777,75;	0,0;	0,0
592,3214111328125;	770,0;	0,0;	0,0
592,3804931640625;	722,0;	0,0;	0,0
592,4396362304688;	732,25;	0,0;	0,0
592,4987182617188;	767,5;	0,0;	0,0
592,5577392578125;	765,75;	0,0;	0,0
592,6167602539062;	768,0;	0,0;	0,0
592,6758422851562;	716,0;	0,0;	0,0
592,73486328125;	691,0;	0,0;	0,0
592,7938842773438;	835,75;	0,0;	0,0
592,8528442382812;	876,75;	0,0;	0,0
592,9118041992188;	799,0;	0,0;	0,0
592,9707641601562;	764,5;	0,0;	0,0
593,0297241210938;	687,5;	0,0;	0,0
593,0886840820312;	718,75;	0,0;	0,0
593,1475219726562;	728,75;	0,0;	0,0
593,2064819335938;	716,0;	0,0;	0,0
593,2652587890625;	695,25;	0,0;	0,0
593,32421875;	748,25;	0,0;	0,0
593,383056640625;	721,75;	0,0;	0,0
593,44189453125;	707,75;	0,0;	0,0
593,5006713867188;	723,5;	0,0;	0,0
593,5595703125;	746,0;	0,0;	0,0
593,6182861328125;	627,0;	0,0;	0,0
593,6770629882812;	682,75;	0,0;	0,0
593,73583984375;	679,25;	0,0;	0,0
593,7945556640625;	654,25;	0,0;	0,0
593,853271484375;	651,0;	0,0;	0,0
593,9119262695312;	688,5;	0,0;	0,0
593,970703125;	649,25;	0,0;	0,0
594,0293579101562;	675,0;	0,0;	0,0
594,0880126953125;	714,0;	0,0;	0,0
594,146728515625;	671,0;	0,0;	0,0
594,205322265625;	651,75;	0,0;	0,0
594,263916015625;	620,5;	0,0;	0,0
594,3225708007812;	631,5;	0,0;	0,0
594,3811645507812;	645,0;	0,0;	0,0
594,439697265625;	623,5;	0,0;	0,0
594,498291015625;	645,25;	0,0;	0,0
594,5567626953125;	645,25;	0,0;	0,0
594,6153564453125;	642,25;	0,0;	0,0
594,673828125;	600,0;	0,0;	0,0
594,7322998046875;	624,25;	0,0;	0,0
594,790771484375;	647,0;	0,0;	0,0
594,8492431640625;	621,0;	0,0;	0,0
594,90771484375;	665,0;	0,0;	0,0
594,9661254882812;	621,5;	0,0;	0,0
595,0245971679688;	618,5;	0,0;	0,0
595,0829467773438;	654,5;	0,0;	0,0
595,141357421875;	646,0;	0,0;	0,0
595,19970703125;	619,0;	0,0;	0,0
595,2581176757812;	594,75;	0,0;	0,0
595,3164672851562;	596,75;	0,0;	0,0
595,374755859375;	630,25;	0,0;	0,0
595,4330444335938;	621,5;	0,0;	0,0
595,4913330078125;	661,0;	0,0;	0,0
595,5496215820312;	627,25;	0,0;	0,0
595,60791015625;	619,25;	0,0;	0,0
595,6661987304688;	643,0;	0,0;	0,0
595,724365234375;	619,75;	0,0;	0,0
595,7825927734375;	612,0;	0,0;	0,0
595,8408203125;	624,5;	0,0;	0,0
595,8989868164062;	611,0;	0,0;	0,0
595,9572143554688;	576,5;	0,0;	0,0
596,0153198242188;	611,75;	0,0;	0,0
596,073486328125;	624,5;	0,0;	0,0
596,1315307617188;	621,75;	0,0;	0,0
596,1896362304688;	603,5;	0,0;	0,0
596,247802734375;	616,25;	0,0;	0,0
596,3058471679688;	601,25;	0,0;	0,0
596,3638916015625;	598,25;	0,0;	0,0
596,4219970703125;	606,25;	0,0;	0,0
596,47998046875;	609,25;	0,0;	0,0
596,5380249023438;	624,5;	0,0;	0,0
596,5960083007812;	599,0;	0,0;	0,0
596,6539916992188;	583,5;	0,0;	0,0
596,7119750976562;	620,5;	0,0;	0,0
596,7698364257812;	594,0;	0,0;	0,0
596,8278198242188;	618,75;	0,0;	0,0
596,8858032226562;	613,0;	0,0;	0,0
596,9436645507812;	580,75;	0,0;	0,0
597,0015869140625;	582,25;	0,0;	0,0
597,0595092773438;	579,5;	0,0;	0,0
597,1173095703125;	658,25;	0,0;	0,0
597,1751098632812;	625,0;	0,0;	0,0
597,2329711914062;	607,25;	0,0;	0,0
597,290771484375;	617,5;	0,0;	0,0
597,3486328125;	652,25;	0,0;	0,0
597,4063110351562;	676,5;	0,0;	0,0
597,4641723632812;	616,5;	0,0;	0,0
597,5219116210938;	630,0;	0,0;	0,0
597,57958984375;	649,25;	0,0;	0,0
597,6373291015625;	619,0;	0,0;	0,0
597,695068359375;	605,75;	0,0;	0,0
597,7527465820312;	574,75;	0,0;	0,0
597,8104248046875;	586,0;	0,0;	0,0
597,8681030273438;	607,5;	0,0;	0,0
597,9257202148438;	638,0;	0,0;	0,0
597,9833374023438;	587,75;	0,0;	0,0
598,0408935546875;	622,75;	0,0;	0,0
598,0985107421875;	639,5;	0,0;	0,0
598,1561279296875;	599,25;	0,0;	0,0
598,2136840820312;	632,0;	0,0;	0,0
598,271240234375;	691,25;	0,0;	0,0
598,3287353515625;	624,25;	0,0;	0,0
598,3862915039062;	636,25;	0,0;	0,0
598,44384765625;	615,5;	0,0;	0,0
598,5012817382812;	619,0;	0,0;	0,0
598,5587158203125;	651,0;	0,0;	0,0
598,6162109375;	593,5;	0,0;	0,0
598,673583984375;	597,0;	0,0;	0,0
598,7310791015625;	573,75;	0,0;	0,0
598,7885131835938;	572,5;	0,0;	0,0
598,8458251953125;	566,0;	0,0;	0,0
598,9032592773438;	563,25;	0,0;	0,0
598,9605712890625;	551,0;	0,0;	0,0
599,0179443359375;	582,25;	0,0;	0,0
599,0753173828125;	599,75;	0,0;	0,0
599,132568359375;	566,5;	0,0;	0,0
599,1898803710938;	567,0;	0,0;	0,0
599,2472534179688;	551,0;	0,0;	0,0
599,3043823242188;	557,5;	0,0;	0,0
599,3616943359375;	582,25;	0,0;	0,0
599,4189453125;	555,25;	0,0;	0,0
599,4761352539062;	554,0;	0,0;	0,0
599,5333251953125;	557,0;	0,0;	0,0
599,5905151367188;	561,75;	0,0;	0,0
599,647705078125;	567,5;	0,0;	0,0
599,7049560546875;	575,0;	0,0;	0,0
599,7620239257812;	557,5;	0,0;	0,0
599,8191528320312;	569,5;	0,0;	0,0
599,8762817382812;	567,75;	0,0;	0,0
599,933349609375;	529,75;	0,0;	0,0
599,9904174804688;	591,0;	0,0;	0,0
600,0475463867188;	553,75;	0,0;	0,0
600,1045532226562;	583,75;	0,0;	0,0
600,16162109375;	591,25;	0,0;	0,0
600,2186279296875;	626,25;	0,0;	0,0
600,2755737304688;	573,5;	0,0;	0,0
600,3326416015625;	578,25;	0,0;	0,0
600,3895874023438;	560,25;	0,0;	0,0
600,446533203125;	559,5;	0,0;	0,0
600,5034790039062;	560,0;	0,0;	0,0
600,5603637695312;	566,75;	0,0;	0,0
600,6172485351562;	586,5;	0,0;	0,0
600,6742553710938;	640,5;	0,0;	0,0
600,7310791015625;	635,25;	0,0;	0,0
600,7879028320312;	585,5;	0,0;	0,0
600,8447265625;	543,25;	0,0;	0,0
600,9015502929688;	535,25;	0,0;	0,0
600,9584350585938;	561,75;	0,0;	0,0
601,0151977539062;	546,5;	0,0;	0,0
601,0719604492188;	519,75;	0,0;	0,0
601,1287231445312;	549,0;	0,0;	0,0
601,185546875;	533,5;	0,0;	0,0
601,2422485351562;	544,25;	0,0;	0,0
601,2989501953125;	579,75;	0,0;	0,0
601,355712890625;	557,75;	0,0;	0,0
601,412353515625;	555,5;	0,0;	0,0
601,468994140625;	578,25;	0,0;	0,0
601,5256958007812;	566,5;	0,0;	0,0
601,5823364257812;	614,75;	0,0;	0,0
601,6389770507812;	572,75;	0,0;	0,0
601,695556640625;	550,75;	0,0;	0,0
601,7521362304688;	589,5;	0,0;	0,0
601,8087158203125;	637,25;	0,0;	0,0
601,8652954101562;	639,75;	0,0;	0,0
601,9218139648438;	648,25;	0,0;	0,0
601,9783935546875;	594,25;	0,0;	0,0
602,034912109375;	575,75;	0,0;	0,0
602,0913696289062;	582,0;	0,0;	0,0
602,1478271484375;	595,75;	0,0;	0,0
602,204345703125;	632,5;	0,0;	0,0
602,2608032226562;	708,0;	0,0;	0,0
602,3171997070312;	661,25;	0,0;	0,0
602,3736572265625;	607,0;	0,0;	0,0
602,4300537109375;	547,75;	0,0;	0,0
602,4864501953125;	577,25;	0,0;	0,0
602,5427856445312;	535,0;	0,0;	0,0
602,5991821289062;	553,5;	0,0;	0,0
602,655517578125;	517,0;	0,0;	0,0
602,7117919921875;	515,25;	0,0;	0,0
602,7681274414062;	516,5;	0,0;	0,0
602,824462890625;	502,5;	0,0;	0,0
602,8806762695312;	529,25;	0,0;	0,0
602,93701171875;	541,5;	0,0;	0,0
602,9932250976562;	517,5;	0,0;	0,0
603,0494384765625;	554,25;	0,0;	0,0
603,105712890625;	537,75;	0,0;	0,0
603,161865234375;	508,0;	0,0;	0,0
603,2180786132812;	549,75;	0,0;	0,0
603,2742309570312;	524,75;	0,0;	0,0
603,3303833007812;	542,5;	0,0;	0,0
603,3865356445312;	522,25;	0,0;	0,0
603,4426879882812;	533,5;	0,0;	0,0
603,498779296875;	524,75;	0,0;	0,0
603,5548706054688;	505,25;	0,0;	0,0
603,6109008789062;	511,25;	0,0;	0,0
603,6669311523438;	512,0;	0,0;	0,0
603,7230224609375;	534,75;	0,0;	0,0
603,7789916992188;	511,75;	0,0;	0,0
603,8350219726562;	523,5;	0,0;	0,0
603,8909912109375;	510,5;	0,0;	0,0
603,947021484375;	536,5;	0,0;	0,0
604,0030517578125;	517,75;	0,0;	0,0
604,0589599609375;	540,25;	0,0;	0,0
604,1148681640625;	499,75;	0,0;	0,0
604,1707763671875;	540,75;	0,0;	0,0
604,2266845703125;	527,75;	0,0;	0,0
604,2825317382812;	500,75;	0,0;	0,0
604,3385009765625;	514,5;	0,0;	0,0
604,394287109375;	491,25;	0,0;	0,0
604,4501342773438;	512,25;	0,0;	0,0
604,5059204101562;	512,75;	0,0;	0,0
604,5617065429688;	538,25;	0,0;	0,0
604,6175537109375;	521,25;	0,0;	0,0
604,67333984375;	520,5;	0,0;	0,0
604,7290649414062;	495,5;	0,0;	0,0
604,7847900390625;	501,75;	0,0;	0,0
604,8405151367188;	482,0;	0,0;	0,0
604,896240234375;	516,0;	0,0;	0,0
604,9519653320312;	498,25;	0,0;	0,0
605,007568359375;	503,25;	0,0;	0,0
605,0632934570312;	507,25;	0,0;	0,0
605,118896484375;	489,5;	0,0;	0,0
605,174560546875;	519,5;	0,0;	0,0
605,2301635742188;	527,5;	0,0;	0,0
605,2857666015625;	537,0;	0,0;	0,0
605,34130859375;	539,5;	0,0;	0,0
605,3969116210938;	564,75;	0,0;	0,0
605,4524536132812;	522,25;	0,0;	0,0
605,5079956054688;	548,75;	0,0;	0,0
605,5635375976562;	529,5;	0,0;	0,0
605,6190185546875;	520,25;	0,0;	0,0
605,674560546875;	483,25;	0,0;	0,0
605,7299194335938;	493,5;	0,0;	0,0
605,7854614257812;	517,75;	0,0;	0,0
605,8409423828125;	502,75;	0,0;	0,0
605,896240234375;	520,5;	0,0;	0,0
605,9517211914062;	485,0;	0,0;	0,0
606,0070190429688;	534,25;	0,0;	0,0
606,0625;	513,25;	0,0;	0,0
606,1178588867188;	508,25;	0,0;	0,0
606,1732177734375;	503,25;	0,0;	0,0
606,228515625;	480,5;	0,0;	0,0
606,2838745117188;	520,5;	0,0;	0,0
606,339111328125;	603,0;	0,0;	0,0
606,3944091796875;	694,0;	0,0;	0,0
606,44970703125;	657,0;	0,0;	0,0
606,5048828125;	551,25;	0,0;	0,0
606,5601806640625;	519,75;	0,0;	0,0
606,6153564453125;	486,5;	0,0;	0,0
606,6705322265625;	473,5;	0,0;	0,0
606,7257690429688;	465,5;	0,0;	0,0
606,781005859375;	501,5;	0,0;	0,0
606,8360595703125;	469,75;	0,0;	0,0
606,8912353515625;	460,25;	0,0;	0,0
606,9463500976562;	475,75;	0,0;	0,0
607,0014038085938;	471,25;	0,0;	0,0
607,0565795898438;	501,25;	0,0;	0,0
607,1116333007812;	497,75;	0,0;	0,0
607,1666870117188;	465,0;	0,0;	0,0
607,2216796875;	469,25;	0,0;	0,0
607,2767333984375;	452,0;	0,0;	0,0
607,331787109375;	478,5;	0,0;	0,0
607,38671875;	477,75;	0,0;	0,0
607,4417114257812;	490,0;	0,0;	0,0
607,4967041015625;	476,0;	0,0;	0,0
607,5515747070312;	515,5;	0,0;	0,0
607,6065673828125;	460,25;	0,0;	0,0
607,6615600585938;	544,25;	0,0;	0,0
607,7163696289062;	527,5;	0,0;	0,0
607,771240234375;	550,0;	0,0;	0,0
607,8261108398438;	469,25;	0,0;	0,0
607,8809814453125;	491,0;	0,0;	0,0
607,935791015625;	466,5;	0,0;	0,0
607,9906005859375;	492,75;	0,0;	0,0
608,0454711914062;	480,5;	0,0;	0,0
608,1001586914062;	508,0;	0,0;	0,0
608,1549682617188;	483,5;	0,0;	0,0
608,2097778320312;	467,25;	0,0;	0,0
608,2645263671875;	472,75;	0,0;	0,0
608,3191528320312;	508,75;	0,0;	0,0
608,3739013671875;	495,5;	0,0;	0,0
608,4285888671875;	486,75;	0,0;	0,0
608,4832153320312;	479,0;	0,0;	0,0
608,5379638671875;	489,25;	0,0;	0,0
608,5925903320312;	500,25;	0,0;	0,0
608,647216796875;	502,75;	0,0;	0,0
608,7017822265625;	509,25;	0,0;	0,0
608,7564086914062;	518,5;	0,0;	0,0
608,8109741210938;	493,5;	0,0;	0,0
608,8656005859375;	515,5;	0,0;	0,0
608,9201049804688;	505,75;	0,0;	0,0
608,974609375;	498,5;	0,0;	0,0
609,0291137695312;	521,75;	0,0;	0,0
609,0836181640625;	516,25;	0,0;	0,0
609,1381225585938;	538,25;	0,0;	0,0
609,1925659179688;	488,25;	0,0;	0,0
609,2470092773438;	494,25;	0,0;	0,0
609,3014526367188;	558,25;	0,0;	0,0
609,3558349609375;	554,5;	0,0;	0,0
609,4102783203125;	542,0;	0,0;	0,0
609,4646606445312;	535,0;	0,0;	0,0
609,51904296875;	532,5;	0,0;	0,0
609,5734252929688;	529,0;	0,0;	0,0
609,627685546875;	567,75;	0,0;	0,0
609,6820678710938;	547,0;	0,0;	0,0
609,7363891601562;	514,0;	0,0;	0,0
609,7906494140625;	500,25;	0,0;	0,0
609,844970703125;	508,0;	0,0;	0,0
609,899169921875;	530,75;	0,0;	0,0
609,953369140625;	555,0;	0,0;	0,0
610,0076293945312;	609,5;	0,0;	0,0
610,0618286132812;	742,0;	0,0;	0,0
610,1160888671875;	851,5;	0,0;	0,0
610,170166015625;	1044,75;	0,0;	0,0
610,224365234375;	933,5;	0,0;	0,0
610,2785034179688;	727,25;	0,0;	0,0
610,3327026367188;	580,0;	0,0;	0,0
610,3867797851562;	541,25;	0,0;	0,0
610,4408569335938;	534,75;	0,0;	0,0
610,4949340820312;	538,75;	0,0;	0,0
610,549072265625;	527,0;	0,0;	0,0
610,6030883789062;	524,5;	0,0;	0,0
610,6571044921875;	541,5;	0,0;	0,0
610,7111206054688;	523,75;	0,0;	0,0
610,7650756835938;	533,75;	0,0;	0,0
610,819091796875;	499,0;	0,0;	0,0
610,8731079101562;	538,25;	0,0;	0,0
610,9270629882812;	505,75;	0,0;	0,0
610,98095703125;	528,25;	0,0;	0,0
611,034912109375;	506,75;	0,0;	0,0
611,0887451171875;	489,0;	0,0;	0,0
611,1427001953125;	499,5;	0,0;	0,0
611,1965942382812;	492,25;	0,0;	0,0
611,2503662109375;	525,0;	0,0;	0,0
611,30419921875;	508,25;	0,0;	0,0
611,3580322265625;	534,5;	0,0;	0,0
611,411865234375;	473,25;	0,0;	0,0
611,4656982421875;	515,0;	0,0;	0,0
611,5194702148438;	527,0;	0,0;	0,0
611,5731811523438;	526,0;	0,0;	0,0
611,626953125;	510,25;	0,0;	0,0
611,6806640625;	550,0;	0,0;	0,0
611,734375;	535,5;	0,0;	0,0
611,7880859375;	523,5;	0,0;	0,0
611,8417358398438;	516,5;	0,0;	0,0
611,8953857421875;	576,0;	0,0;	0,0
611,9490356445312;	611,5;	0,0;	0,0
612,002685546875;	763,25;	0,0;	0,0
612,0562744140625;	958,25;	0,0;	0,0
612,1099243164062;	928,75;	0,0;	0,0
612,1635131835938;	772,5;	0,0;	0,0
612,2171020507812;	598,25;	0,0;	0,0
612,2705688476562;	535,0;	0,0;	0,0
612,3241577148438;	536,0;	0,0;	0,0
612,3776245117188;	523,25;	0,0;	0,0
612,4310913085938;	502,75;	0,0;	0,0
612,484619140625;	496,0;	0,0;	0,0
612,5380859375;	529,0;	0,0;	0,0
612,591552734375;	521,5;	0,0;	0,0
612,64501953125;	546,5;	0,0;	0,0
612,6983642578125;	538,25;	0,0;	0,0
612,7518310546875;	527,5;	0,0;	0,0
612,80517578125;	518,5;	0,0;	0,0
612,8585205078125;	514,75;	0,0;	0,0
612,9119262695312;	494,25;	0,0;	0,0
612,9652709960938;	530,0;	0,0;	0,0
613,0185546875;	540,25;	0,0;	0,0
613,0718383789062;	509,25;	0,0;	0,0
613,1251220703125;	509,75;	0,0;	0,0
613,1784057617188;	512,0;	0,0;	0,0
613,2317504882812;	515,5;	0,0;	0,0
613,2849731445312;	532,5;	0,0;	0,0
613,338134765625;	535,0;	0,0;	0,0
613,391357421875;	606,75;	0,0;	0,0
613,4445190429688;	713,0;	0,0;	0,0
613,4977416992188;	830,25;	0,0;	0,0
613,5509033203125;	925,75;	0,0;	0,0
613,6040649414062;	901,0;	0,0;	0,0
613,6572265625;	731,75;	0,0;	0,0
613,7102661132812;	624,5;	0,0;	0,0
613,7633666992188;	495,5;	0,0;	0,0
613,8164672851562;	507,25;	0,0;	0,0
613,8695068359375;	476,5;	0,0;	0,0
613,922607421875;	551,75;	0,0;	0,0
613,9755859375;	596,75;	0,0;	0,0
614,028564453125;	616,25;	0,0;	0,0
614,0816040039062;	559,0;	0,0;	0,0
614,1346435546875;	517,25;	0,0;	0,0
614,1875610351562;	521,25;	0,0;	0,0
614,2405395507812;	520,75;	0,0;	0,0
614,2933959960938;	491,0;	0,0;	0,0
614,3463745117188;	497,5;	0,0;	0,0
614,3992919921875;	508,0;	0,0;	0,0
614,4521484375;	508,5;	0,0;	0,0
614,5050048828125;	504,75;	0,0;	0,0
614,5578002929688;	547,5;	0,0;	0,0
614,6106567382812;	509,25;	0,0;	0,0
614,6635131835938;	525,5;	0,0;	0,0
614,7163696289062;	527,75;	0,0;	0,0
614,7691040039062;	524,75;	0,0;	0,0
614,8218994140625;	502,25;	0,0;	0,0
614,8746337890625;	483,5;	0,0;	0,0
614,9273681640625;	513,25;	0,0;	0,0
614,9801025390625;	525,25;	0,0;	0,0
615,0327758789062;	515,75;	0,0;	0,0
615,0855102539062;	566,5;	0,0;	0,0
615,1381225585938;	544,25;	0,0;	0,0
615,1908569335938;	557,0;	0,0;	0,0
615,2434692382812;	590,0;	0,0;	0,0
615,2960815429688;	608,25;	0,0;	0,0
615,3486938476562;	584,75;	0,0;	0,0
615,4012451171875;	561,0;	0,0;	0,0
615,453857421875;	546,5;	0,0;	0,0
615,5064697265625;	587,0;	0,0;	0,0
615,5589599609375;	594,0;	0,0;	0,0
615,6114501953125;	577,25;	0,0;	0,0
615,6640014648438;	573,5;	0,0;	0,0
615,7164306640625;	582,25;	0,0;	0,0
615,7689819335938;	609,0;	0,0;	0,0
615,8214111328125;	630,5;	0,0;	0,0
615,8738403320312;	756,5;	0,0;	0,0
615,9263305664062;	815,25;	0,0;	0,0
615,9786987304688;	1009,0;	0,0;	0,0
616,0310668945312;	1207,5;	0,0;	0,0
616,08349609375;	1235,25;	0,0;	0,0
616,1358642578125;	1063,75;	0,0;	0,0
616,1881713867188;	756,5;	0,0;	0,0
616,2405395507812;	632,0;	0,0;	0,0
616,2928466796875;	590,75;	0,0;	0,0
616,3450927734375;	597,0;	0,0;	0,0
616,3974609375;	581,25;	0,0;	0,0
616,4496459960938;	576,75;	0,0;	0,0
616,501953125;	585,0;	0,0;	0,0
616,5540771484375;	606,75;	0,0;	0,0
616,6063842773438;	596,0;	0,0;	0,0
616,6585693359375;	603,0;	0,0;	0,0
616,7107543945312;	623,75;	0,0;	0,0
616,7628784179688;	675,0;	0,0;	0,0
616,8150634765625;	685,25;	0,0;	0,0
616,8671264648438;	656,5;	0,0;	0,0
616,9193115234375;	606,5;	0,0;	0,0
616,971435546875;	568,75;	0,0;	0,0
617,0234985351562;	517,0;	0,0;	0,0
617,0756225585938;	565,5;	0,0;	0,0
617,1275634765625;	578,25;	0,0;	0,0
617,1796875;	551,75;	0,0;	0,0
617,231689453125;	539,75;	0,0;	0,0
617,28369140625;	535,0;	0,0;	0,0
617,3356323242188;	560,75;	0,0;	0,0
617,3876953125;	541,5;	0,0;	0,0
617,4395751953125;	545,75;	0,0;	0,0
617,4915161132812;	548,25;	0,0;	0,0
617,54345703125;	542,5;	0,0;	0,0
617,5953369140625;	591,75;	0,0;	0,0
617,6472778320312;	576,75;	0,0;	0,0
617,6990966796875;	557,25;	0,0;	0,0
617,7509765625;	565,0;	0,0;	0,0
617,8027954101562;	565,75;	0,0;	0,0
617,8546142578125;	606,75;	0,0;	0,0
617,906494140625;	563,75;	0,0;	0,0
617,9581909179688;	600,5;	0,0;	0,0
618,010009765625;	573,5;	0,0;	0,0
618,061767578125;	581,25;	0,0;	0,0
618,113525390625;	561,25;	0,0;	0,0
618,1652221679688;	537,25;	0,0;	0,0
618,2169799804688;	571,75;	0,0;	0,0
618,2686157226562;	568,25;	0,0;	0,0
618,3203125;	591,0;	0,0;	0,0
618,3720092773438;	563,5;	0,0;	0,0
618,423583984375;	546,5;	0,0;	0,0
618,4752197265625;	546,75;	0,0;	0,0
618,5267944335938;	566,5;	0,0;	0,0
618,5784301757812;	575,0;	0,0;	0,0
618,6300048828125;	577,25;	0,0;	0,0
618,681640625;	599,75;	0,0;	0,0
618,7330932617188;	589,75;	0,0;	0,0
618,7846069335938;	586,25;	0,0;	0,0
618,8361206054688;	598,0;	0,0;	0,0
618,8876342773438;	619,0;	0,0;	0,0
618,9391479492188;	720,75;	0,0;	0,0
618,9905395507812;	780,25;	0,0;	0,0
619,0419921875;	787,0;	0,0;	0,0
619,0933837890625;	643,5;	0,0;	0,0
619,1448364257812;	599,5;	0,0;	0,0
619,1962890625;	534,25;	0,0;	0,0
619,2476196289062;	568,0;	0,0;	0,0
619,2990112304688;	573,0;	0,0;	0,0
619,3504028320312;	538,25;	0,0;	0,0
619,4016723632812;	567,75;	0,0;	0,0
619,4530029296875;	550,5;	0,0;	0,0
619,5043334960938;	540,5;	0,0;	0,0
619,5555419921875;	545,0;	0,0;	0,0
619,6068115234375;	543,0;	0,0;	0,0
619,6580810546875;	533,75;	0,0;	0,0
619,7092895507812;	540,25;	0,0;	0,0
619,7605590820312;	540,25;	0,0;	0,0
619,8117065429688;	544,5;	0,0;	0,0
619,8628540039062;	573,0;	0,0;	0,0
619,9140014648438;	545,75;	0,0;	0,0
619,9652099609375;	588,0;	0,0;	0,0
620,0162963867188;	568,0;	0,0;	0,0
620,0675048828125;	579,25;	0,0;	0,0
620,1185913085938;	596,5;	0,0;	0,0
620,169677734375;	547,75;	0,0;	0,0
620,2206420898438;	525,5;	0,0;	0,0
620,2717895507812;	554,0;	0,0;	0,0
620,3228149414062;	524,5;	0,0;	0,0
620,373779296875;	541,25;	0,0;	0,0
620,4248046875;	555,25;	0,0;	0,0
620,4757690429688;	580,75;	0,0;	0,0
620,5267333984375;	567,0;	0,0;	0,0
620,5777587890625;	532,25;	0,0;	0,0
620,628662109375;	538,0;	0,0;	0,0
620,6795654296875;	565,0;	0,0;	0,0
620,73046875;	552,25;	0,0;	0,0
620,7813110351562;	544,5;	0,0;	0,0
620,8322143554688;	555,5;	0,0;	0,0
620,883056640625;	533,5;	0,0;	0,0
620,933837890625;	534,5;	0,0;	0,0
620,9846801757812;	565,5;	0,0;	0,0
621,0354614257812;	537,25;	0,0;	0,0
621,0863037109375;	556,25;	0,0;	0,0
621,1370849609375;	520,75;	0,0;	0,0
621,1878662109375;	573,25;	0,0;	0,0
621,2385864257812;	583,25;	0,0;	0,0
621,2892456054688;	554,0;	0,0;	0,0
621,3399047851562;	520,0;	0,0;	0,0
621,3906860351562;	522,25;	0,0;	0,0
621,4413452148438;	559,5;	0,0;	0,0
621,491943359375;	520,0;	0,0;	0,0
621,5426025390625;	561,5;	0,0;	0,0
621,5931396484375;	554,5;	0,0;	0,0
621,643798828125;	552,5;	0,0;	0,0
621,6943969726562;	557,75;	0,0;	0,0
621,7449951171875;	562,0;	0,0;	0,0
621,7955322265625;	641,75;	0,0;	0,0
621,8460693359375;	561,75;	0,0;	0,0
621,8965454101562;	550,25;	0,0;	0,0
621,9470825195312;	615,25;	0,0;	0,0
621,9976196289062;	556,0;	0,0;	0,0
622,0480346679688;	568,75;	0,0;	0,0
622,0985107421875;	539,75;	0,0;	0,0
622,1488647460938;	541,0;	0,0;	0,0
622,1993408203125;	546,0;	0,0;	0,0
622,249755859375;	601,5;	0,0;	0,0
622,3001708984375;	552,75;	0,0;	0,0
622,3505249023438;	558,75;	0,0;	0,0
622,4008178710938;	576,0;	0,0;	0,0
622,451171875;	513,5;	0,0;	0,0
622,5015258789062;	599,75;	0,0;	0,0
622,5518798828125;	577,25;	0,0;	0,0
622,6021118164062;	594,75;	0,0;	0,0
622,6524047851562;	579,0;	0,0;	0,0
622,7025756835938;	567,75;	0,0;	0,0
622,7528686523438;	623,25;	0,0;	0,0
622,8031616210938;	707,5;	0,0;	0,0
622,853271484375;	777,25;	0,0;	0,0
622,9034423828125;	862,5;	0,0;	0,0
622,95361328125;	908,75;	0,0;	0,0
623,0037841796875;	730,5;	0,0;	0,0
623,053955078125;	638,25;	0,0;	0,0
623,1040649414062;	613,0;	0,0;	0,0
623,1541137695312;	602,25;	0,0;	0,0
623,2042236328125;	602,25;	0,0;	0,0
623,2542724609375;	579,75;	0,0;	0,0
623,3043823242188;	578,0;	0,0;	0,0
623,3544311523438;	543,5;	0,0;	0,0
623,4044189453125;	566,0;	0,0;	0,0
623,4544677734375;	560,0;	0,0;	0,0
623,50439453125;	542,25;	0,0;	0,0
623,5543823242188;	571,5;	0,0;	0,0
623,6043701171875;	569,75;	0,0;	0,0
623,6543579101562;	565,5;	0,0;	0,0
623,7042236328125;	562,5;	0,0;	0,0
623,754150390625;	548,0;	0,0;	0,0
623,803955078125;	540,25;	0,0;	0,0
623,8538818359375;	562,25;	0,0;	0,0
623,9037475585938;	558,25;	0,0;	0,0
623,9535522460938;	566,25;	0,0;	0,0
624,0033569335938;	547,0;	0,0;	0,0
624,0531616210938;	609,5;	0,0;	0,0
624,1029663085938;	562,0;	0,0;	0,0
624,1527709960938;	538,0;	0,0;	0,0
624,2025756835938;	529,0;	0,0;	0,0
624,2522583007812;	535,0;	0,0;	0,0
624,3019409179688;	588,75;	0,0;	0,0
624,3516235351562;	587,0;	0,0;	0,0
624,4013671875;	614,5;	0,0;	0,0
624,4510498046875;	658,0;	0,0;	0,0
624,5006713867188;	725,0;	0,0;	0,0
624,5503540039062;	623,75;	0,0;	0,0
624,599853515625;	582,0;	0,0;	0,0
624,6495361328125;	554,25;	0,0;	0,0
624,6991577148438;	571,0;	0,0;	0,0
624,7486572265625;	574,0;	0,0;	0,0
624,7982177734375;	536,75;	0,0;	0,0
624,8477172851562;	576,0;	0,0;	0,0
624,8972778320312;	550,0;	0,0;	0,0
624,94677734375;	565,0;	0,0;	0,0
624,9962768554688;	599,5;	0,0;	0,0
625,0457763671875;	616,75;	0,0;	0,0
625,09521484375;	761,5;	0,0;	0,0
625,1446533203125;	692,0;	0,0;	0,0
625,194091796875;	627,5;	0,0;	0,0
625,2434692382812;	585,75;	0,0;	0,0
625,2928466796875;	582,25;	0,0;	0,0
625,3422241210938;	572,75;	0,0;	0,0
625,3914794921875;	557,0;	0,0;	0,0
625,44091796875;	528,75;	0,0;	0,0
625,490234375;	571,25;	0,0;	0,0
625,53955078125;	551,0;	0,0;	0,0
625,5888061523438;	510,75;	0,0;	0,0
625,6380615234375;	505,5;	0,0;	0,0
625,687255859375;	561,75;	0,0;	0,0
625,736572265625;	528,5;	0,0;	0,0
625,7858276367188;	0,0;	0,0;	0,0
