0.0	0.5
Integration time [ms]:	1.05
Averaging Nr. [scans]:1
Smoothing Nr. [pixels]:0
Data measured with spectrometer [name]:b'1703279U8'
Wave	;Sample	;Dark	;Reference	;Scope	
[nm]	;[counts]	;[counts]	;[counts]	
 
725,3621826171875;	373,5;	0,0;	0,0
725,4813842773438;	378,5;	0,0;	0,0
725,6005249023438;	379,75;	0,0;	0,0
725,7197265625;	376,75;	0,0;	0,0
725,8388671875;	371,0;	0,0;	0,0
725,9579467773438;	389,25;	0,0;	0,0
726,0770874023438;	381,25;	0,0;	0,0
726,1961669921875;	384,25;	0,0;	0,0
726,315185546875;	421,75;	0,0;	0,0
726,4342651367188;	368,0;	0,0;	0,0
726,5532836914062;	410,0;	0,0;	0,0
726,6723022460938;	385,5;	0,0;	0,0
726,7913208007812;	389,5;	0,0;	0,0
726,9102783203125;	363,75;	0,0;	0,0
727,0292358398438;	384,5;	0,0;	0,0
727,148193359375;	366,0;	0,0;	0,0
727,26708984375;	410,75;	0,0;	0,0
727,385986328125;	408,25;	0,0;	0,0
727,5048828125;	377,75;	0,0;	0,0
727,6237182617188;	392,25;	0,0;	0,0
727,7426147460938;	385,0;	0,0;	0,0
727,8614501953125;	378,75;	0,0;	0,0
727,9801635742188;	418,5;	0,0;	0,0
728,0989379882812;	383,75;	0,0;	0,0
728,2177124023438;	391,0;	0,0;	0,0
728,3364868164062;	401,5;	0,0;	0,0
728,4552612304688;	412,25;	0,0;	0,0
728,573974609375;	393,25;	0,0;	0,0
728,6926879882812;	398,25;	0,0;	0,0
728,8113403320312;	386,5;	0,0;	0,0
728,9299926757812;	405,25;	0,0;	0,0
729,0486450195312;	389,5;	0,0;	0,0
729,1672973632812;	414,5;	0,0;	0,0
729,285888671875;	453,5;	0,0;	0,0
729,4044799804688;	397,25;	0,0;	0,0
729,5230712890625;	372,0;	0,0;	0,0
729,6416625976562;	380,75;	0,0;	0,0
729,7601928710938;	389,25;	0,0;	0,0
729,8787231445312;	387,75;	0,0;	0,0
729,9971313476562;	398,0;	0,0;	0,0
730,1156005859375;	396,0;	0,0;	0,0
730,2340698242188;	409,25;	0,0;	0,0
730,3525390625;	393,5;	0,0;	0,0
730,470947265625;	363,75;	0,0;	0,0
730,58935546875;	406,0;	0,0;	0,0
730,707763671875;	415,0;	0,0;	0,0
730,826171875;	396,0;	0,0;	0,0
730,9445190429688;	402,75;	0,0;	0,0
731,0628662109375;	428,25;	0,0;	0,0
731,18115234375;	384,5;	0,0;	0,0
731,2994995117188;	430,0;	0,0;	0,0
731,4177856445312;	395,0;	0,0;	0,0
731,5360107421875;	389,75;	0,0;	0,0
731,654296875;	391,0;	0,0;	0,0
731,7725219726562;	384,75;	0,0;	0,0
731,8906860351562;	395,0;	0,0;	0,0
732,0088500976562;	400,0;	0,0;	0,0
732,1270141601562;	410,25;	0,0;	0,0
732,2451782226562;	419,5;	0,0;	0,0
732,3633422851562;	426,75;	0,0;	0,0
732,4814453125;	462,0;	0,0;	0,0
732,5995483398438;	453,0;	0,0;	0,0
732,7176513671875;	458,5;	0,0;	0,0
732,8357543945312;	405,25;	0,0;	0,0
732,9537963867188;	376,25;	0,0;	0,0
733,07177734375;	393,0;	0,0;	0,0
733,189697265625;	417,5;	0,0;	0,0
733,3076782226562;	405,25;	0,0;	0,0
733,4256591796875;	400,0;	0,0;	0,0
733,5436401367188;	417,0;	0,0;	0,0
733,6615600585938;	376,5;	0,0;	0,0
733,7794799804688;	425,25;	0,0;	0,0
733,8973999023438;	404,0;	0,0;	0,0
734,0152587890625;	398,5;	0,0;	0,0
734,1331176757812;	420,5;	0,0;	0,0
734,2509765625;	426,75;	0,0;	0,0
734,3687744140625;	433,0;	0,0;	0,0
734,486572265625;	421,0;	0,0;	0,0
734,6043701171875;	383,75;	0,0;	0,0
734,72216796875;	407,25;	0,0;	0,0
734,8399047851562;	407,25;	0,0;	0,0
734,9576416015625;	386,0;	0,0;	0,0
735,0753173828125;	407,5;	0,0;	0,0
735,1930541992188;	405,25;	0,0;	0,0
735,3107299804688;	410,5;	0,0;	0,0
735,4283447265625;	432,5;	0,0;	0,0
735,5460205078125;	379,5;	0,0;	0,0
735,6636352539062;	426,25;	0,0;	0,0
735,78125;	432,0;	0,0;	0,0
735,8988647460938;	405,75;	0,0;	0,0
736,016357421875;	384,75;	0,0;	0,0
736,1339111328125;	411,25;	0,0;	0,0
736,25146484375;	387,0;	0,0;	0,0
736,3690185546875;	424,5;	0,0;	0,0
736,4864501953125;	424,75;	0,0;	0,0
736,6039428710938;	440,75;	0,0;	0,0
736,7213745117188;	390,0;	0,0;	0,0
736,8388671875;	398,0;	0,0;	0,0
736,9562377929688;	427,25;	0,0;	0,0
737,0736083984375;	398,25;	0,0;	0,0
737,1910400390625;	390,75;	0,0;	0,0
737,3084106445312;	370,5;	0,0;	0,0
737,4257202148438;	410,5;	0,0;	0,0
737,5430297851562;	393,0;	0,0;	0,0
737,660400390625;	424,0;	0,0;	0,0
737,7776489257812;	413,75;	0,0;	0,0
737,8948974609375;	417,25;	0,0;	0,0
738,01220703125;	434,75;	0,0;	0,0
738,1294555664062;	429,0;	0,0;	0,0
738,24658203125;	421,0;	0,0;	0,0
738,36376953125;	425,25;	0,0;	0,0
738,48095703125;	421,5;	0,0;	0,0
738,5980834960938;	441,25;	0,0;	0,0
738,7152709960938;	439,5;	0,0;	0,0
738,8323974609375;	481,0;	0,0;	0,0
738,949462890625;	464,5;	0,0;	0,0
739,0665893554688;	392,25;	0,0;	0,0
739,18359375;	432,0;	0,0;	0,0
739,3006591796875;	398,25;	0,0;	0,0
739,417724609375;	411,0;	0,0;	0,0
739,53466796875;	403,25;	0,0;	0,0
739,6517333984375;	411,5;	0,0;	0,0
739,7686767578125;	385,0;	0,0;	0,0
739,8856201171875;	430,0;	0,0;	0,0
740,0025634765625;	413,0;	0,0;	0,0
740,1195068359375;	437,0;	0,0;	0,0
740,2363891601562;	432,25;	0,0;	0,0
740,353271484375;	421,5;	0,0;	0,0
740,4701538085938;	418,5;	0,0;	0,0
740,5869750976562;	421,0;	0,0;	0,0
740,7037963867188;	425,25;	0,0;	0,0
740,8206176757812;	429,5;	0,0;	0,0
740,9373779296875;	438,25;	0,0;	0,0
741,05419921875;	516,25;	0,0;	0,0
741,1708984375;	463,5;	0,0;	0,0
741,2876586914062;	476,0;	0,0;	0,0
741,4043579101562;	410,25;	0,0;	0,0
741,5211181640625;	432,0;	0,0;	0,0
741,6377563476562;	443,0;	0,0;	0,0
741,7544555664062;	449,75;	0,0;	0,0
741,8710327148438;	482,0;	0,0;	0,0
741,9876098632812;	497,5;	0,0;	0,0
742,104248046875;	546,5;	0,0;	0,0
742,2208251953125;	808,0;	0,0;	0,0
742,33740234375;	1028,75;	0,0;	0,0
742,4539794921875;	714,5;	0,0;	0,0
742,5704956054688;	535,25;	0,0;	0,0
742,68701171875;	464,75;	0,0;	0,0
742,8035278320312;	434,5;	0,0;	0,0
742,9199829101562;	428,25;	0,0;	0,0
743,036376953125;	430,25;	0,0;	0,0
743,1528930664062;	456,5;	0,0;	0,0
743,2692260742188;	463,25;	0,0;	0,0
743,3856201171875;	448,75;	0,0;	0,0
743,5020141601562;	471,5;	0,0;	0,0
743,6183471679688;	456,5;	0,0;	0,0
743,7346801757812;	506,75;	0,0;	0,0
743,8510131835938;	518,5;	0,0;	0,0
743,9673461914062;	707,75;	0,0;	0,0
744,0835571289062;	1253,25;	0,0;	0,0
744,1998901367188;	1662,75;	0,0;	0,0
744,3161010742188;	995,25;	0,0;	0,0
744,4323120117188;	733,75;	0,0;	0,0
744,548583984375;	645,25;	0,0;	0,0
744,664794921875;	492,5;	0,0;	0,0
744,7809448242188;	453,75;	0,0;	0,0
744,8970947265625;	455,5;	0,0;	0,0
745,0132446289062;	436,75;	0,0;	0,0
745,1293334960938;	434,5;	0,0;	0,0
745,2454223632812;	429,75;	0,0;	0,0
745,3615112304688;	457,75;	0,0;	0,0
745,4776000976562;	433,75;	0,0;	0,0
745,5936279296875;	429,25;	0,0;	0,0
745,7096557617188;	405,75;	0,0;	0,0
745,82568359375;	451,75;	0,0;	0,0
745,941650390625;	435,25;	0,0;	0,0
746,0576171875;	444,75;	0,0;	0,0
746,173583984375;	468,0;	0,0;	0,0
746,28955078125;	476,75;	0,0;	0,0
746,4054565429688;	529,75;	0,0;	0,0
746,5213012695312;	691,5;	0,0;	0,0
746,63720703125;	1157,25;	0,0;	0,0
746,7530517578125;	2276,5;	0,0;	0,0
746,868896484375;	1926,25;	0,0;	0,0
746,9846801757812;	904,25;	0,0;	0,0
747,1004638671875;	658,25;	0,0;	0,0
747,2162475585938;	504,0;	0,0;	0,0
747,3320922851562;	496,75;	0,0;	0,0
747,4478149414062;	444,0;	0,0;	0,0
747,5635375976562;	505,5;	0,0;	0,0
747,6792602539062;	510,5;	0,0;	0,0
747,794921875;	468,5;	0,0;	0,0
747,9105834960938;	461,75;	0,0;	0,0
748,0262451171875;	444,5;	0,0;	0,0
748,1419067382812;	452,25;	0,0;	0,0
748,2574462890625;	456,75;	0,0;	0,0
748,373046875;	395,75;	0,0;	0,0
748,488525390625;	432,75;	0,0;	0,0
748,6041259765625;	424,75;	0,0;	0,0
748,7196655273438;	374,0;	0,0;	0,0
748,835205078125;	396,25;	0,0;	0,0
748,95068359375;	432,75;	0,0;	0,0
749,066162109375;	460,25;	0,0;	0,0
749,181640625;	416,25;	0,0;	0,0
749,297119140625;	479,5;	0,0;	0,0
749,4125366210938;	609,0;	0,0;	0,0
749,5278930664062;	508,75;	0,0;	0,0
749,6432495117188;	418,0;	0,0;	0,0
749,7586669921875;	419,5;	0,0;	0,0
749,8740234375;	415,25;	0,0;	0,0
749,9893798828125;	384,5;	0,0;	0,0
750,1046752929688;	388,25;	0,0;	0,0
750,2199096679688;	417,5;	0,0;	0,0
750,335205078125;	423,25;	0,0;	0,0
750,4505004882812;	416,5;	0,0;	0,0
750,5657348632812;	404,75;	0,0;	0,0
750,680908203125;	451,0;	0,0;	0,0
750,796142578125;	441,75;	0,0;	0,0
750,9113159179688;	544,5;	0,0;	0,0
751,0264282226562;	710,25;	0,0;	0,0
751,1416015625;	532,75;	0,0;	0,0
751,2567749023438;	424,0;	0,0;	0,0
751,371826171875;	412,25;	0,0;	0,0
751,4869384765625;	450,75;	0,0;	0,0
751,6019897460938;	408,5;	0,0;	0,0
751,717041015625;	406,75;	0,0;	0,0
751,8320922851562;	425,5;	0,0;	0,0
751,9470825195312;	388,5;	0,0;	0,0
752,0620727539062;	419,25;	0,0;	0,0
752,1770629882812;	412,25;	0,0;	0,0
752,2919921875;	395,25;	0,0;	0,0
752,4069213867188;	444,25;	0,0;	0,0
752,5218505859375;	387,25;	0,0;	0,0
752,63671875;	400,0;	0,0;	0,0
752,7515869140625;	400,0;	0,0;	0,0
752,866455078125;	398,0;	0,0;	0,0
752,9813232421875;	444,0;	0,0;	0,0
753,0961303710938;	435,5;	0,0;	0,0
753,2108764648438;	421,5;	0,0;	0,0
753,32568359375;	394,5;	0,0;	0,0
753,4404296875;	405,5;	0,0;	0,0
753,55517578125;	393,5;	0,0;	0,0
753,669921875;	407,75;	0,0;	0,0
753,7846069335938;	392,25;	0,0;	0,0
753,8992919921875;	411,75;	0,0;	0,0
754,0139770507812;	401,75;	0,0;	0,0
754,128662109375;	400,25;	0,0;	0,0
754,2432250976562;	392,25;	0,0;	0,0
754,3578491210938;	380,5;	0,0;	0,0
754,4724731445312;	369,75;	0,0;	0,0
754,5870361328125;	428,25;	0,0;	0,0
754,7015991210938;	412,0;	0,0;	0,0
754,8161010742188;	405,0;	0,0;	0,0
754,9306640625;	406,75;	0,0;	0,0
755,045166015625;	402,75;	0,0;	0,0
755,1596069335938;	388,5;	0,0;	0,0
755,2740478515625;	445,5;	0,0;	0,0
755,3885498046875;	421,5;	0,0;	0,0
755,5029907226562;	409,75;	0,0;	0,0
755,6173706054688;	407,25;	0,0;	0,0
755,7317504882812;	397,25;	0,0;	0,0
755,8460693359375;	379,25;	0,0;	0,0
755,96044921875;	431,75;	0,0;	0,0
756,0748291015625;	396,75;	0,0;	0,0
756,1890869140625;	387,5;	0,0;	0,0
756,3034057617188;	452,0;	0,0;	0,0
756,4176635742188;	411,5;	0,0;	0,0
756,5319213867188;	395,75;	0,0;	0,0
756,6461181640625;	416,75;	0,0;	0,0
756,7603759765625;	403,25;	0,0;	0,0
756,8745727539062;	406,5;	0,0;	0,0
756,9887084960938;	388,25;	0,0;	0,0
757,1029052734375;	404,75;	0,0;	0,0
757,217041015625;	416,25;	0,0;	0,0
757,3311157226562;	414,0;	0,0;	0,0
757,4452514648438;	404,25;	0,0;	0,0
757,559326171875;	402,0;	0,0;	0,0
757,6734008789062;	396,25;	0,0;	0,0
757,7874145507812;	440,5;	0,0;	0,0
757,9013671875;	379,5;	0,0;	0,0
758,0154418945312;	399,5;	0,0;	0,0
758,1293334960938;	397,0;	0,0;	0,0
758,2433471679688;	425,0;	0,0;	0,0
758,3572998046875;	407,25;	0,0;	0,0
758,4712524414062;	473,25;	0,0;	0,0
758,5850830078125;	491,25;	0,0;	0,0
758,698974609375;	412,0;	0,0;	0,0
758,8128662109375;	384,0;	0,0;	0,0
758,9267578125;	403,5;	0,0;	0,0
759,04052734375;	414,5;	0,0;	0,0
759,1543579101562;	435,0;	0,0;	0,0
759,2681884765625;	428,0;	0,0;	0,0
759,3819580078125;	385,5;	0,0;	0,0
759,4956665039062;	398,25;	0,0;	0,0
759,6094360351562;	416,25;	0,0;	0,0
759,72314453125;	402,0;	0,0;	0,0
759,8368530273438;	421,5;	0,0;	0,0
759,9505615234375;	387,25;	0,0;	0,0
760,064208984375;	427,5;	0,0;	0,0
760,1778564453125;	423,5;	0,0;	0,0
760,2914428710938;	403,0;	0,0;	0,0
760,4050903320312;	405,25;	0,0;	0,0
760,5186157226562;	428,0;	0,0;	0,0
760,6322021484375;	422,25;	0,0;	0,0
760,7457275390625;	435,25;	0,0;	0,0
760,8593139648438;	394,0;	0,0;	0,0
760,9727783203125;	396,5;	0,0;	0,0
761,0863037109375;	413,5;	0,0;	0,0
761,1997680664062;	405,5;	0,0;	0,0
761,313232421875;	432,5;	0,0;	0,0
761,4266357421875;	412,0;	0,0;	0,0
761,5400390625;	419,25;	0,0;	0,0
761,6534423828125;	432,75;	0,0;	0,0
761,766845703125;	436,25;	0,0;	0,0
761,880126953125;	442,75;	0,0;	0,0
761,9935302734375;	443,5;	0,0;	0,0
762,1068115234375;	454,5;	0,0;	0,0
762,2200927734375;	441,25;	0,0;	0,0
762,3333740234375;	420,0;	0,0;	0,0
762,4466552734375;	438,75;	0,0;	0,0
762,5598754882812;	424,25;	0,0;	0,0
762,673095703125;	455,75;	0,0;	0,0
762,7863159179688;	419,5;	0,0;	0,0
762,8994750976562;	457,0;	0,0;	0,0
763,0126342773438;	462,25;	0,0;	0,0
763,1257934570312;	472,5;	0,0;	0,0
763,2388916015625;	471,75;	0,0;	0,0
763,3519897460938;	457,75;	0,0;	0,0
763,465087890625;	480,0;	0,0;	0,0
763,578125;	487,0;	0,0;	0,0
763,691162109375;	470,25;	0,0;	0,0
763,80419921875;	468,75;	0,0;	0,0
763,917236328125;	469,25;	0,0;	0,0
764,0302124023438;	496,0;	0,0;	0,0
764,1431884765625;	489,5;	0,0;	0,0
764,256103515625;	494,5;	0,0;	0,0
764,3690795898438;	538,25;	0,0;	0,0
764,4819946289062;	555,5;	0,0;	0,0
764,5948486328125;	565,0;	0,0;	0,0
764,707763671875;	584,25;	0,0;	0,0
764,820556640625;	554,25;	0,0;	0,0
764,9334106445312;	624,5;	0,0;	0,0
765,0462646484375;	654,75;	0,0;	0,0
765,1590576171875;	709,0;	0,0;	0,0
765,2718505859375;	762,5;	0,0;	0,0
765,384521484375;	908,5;	0,0;	0,0
765,497314453125;	1052,25;	0,0;	0,0
765,6100463867188;	1203,75;	0,0;	0,0
765,7227783203125;	1523,0;	0,0;	0,0
765,8353881835938;	1954,25;	0,0;	0,0
765,9480590820312;	2898,25;	0,0;	0,0
766,0607299804688;	4414,0;	0,0;	0,0
766,17333984375;	7967,25;	0,0;	0,0
766,2859497070312;	13842,0;	0,0;	0,0
766,3984985351562;	16383,75;	0,0;	0,0
766,5111083984375;	13762,5;	0,0;	0,0
766,6236572265625;	7178,5;	0,0;	0,0
766,7361450195312;	4069,0;	0,0;	0,0
766,8486938476562;	2779,5;	0,0;	0,0
766,961181640625;	1974,75;	0,0;	0,0
767,0736694335938;	1524,25;	0,0;	0,0
767,1860961914062;	1264,75;	0,0;	0,0
767,2984619140625;	1069,0;	0,0;	0,0
767,4109497070312;	932,25;	0,0;	0,0
767,5233154296875;	875,25;	0,0;	0,0
767,6357421875;	781,5;	0,0;	0,0
767,748046875;	756,75;	0,0;	0,0
767,8602905273438;	659,5;	0,0;	0,0
767,97265625;	684,5;	0,0;	0,0
768,0849609375;	644,5;	0,0;	0,0
768,1972045898438;	648,25;	0,0;	0,0
768,3094482421875;	625,75;	0,0;	0,0
768,4216918945312;	627,25;	0,0;	0,0
768,533935546875;	650,75;	0,0;	0,0
768,6461181640625;	707,75;	0,0;	0,0
768,75830078125;	670,5;	0,0;	0,0
768,8704223632812;	743,25;	0,0;	0,0
768,9826049804688;	867,0;	0,0;	0,0
769,0947265625;	932,25;	0,0;	0,0
769,2068481445312;	1119,25;	0,0;	0,0
769,3189086914062;	1449,75;	0,0;	0,0
769,4309692382812;	2241,5;	0,0;	0,0
769,5430297851562;	3875,5;	0,0;	0,0
769,655029296875;	7993,5;	0,0;	0,0
769,7670288085938;	14589,0;	0,0;	0,0
769,8790283203125;	13323,75;	0,0;	0,0
769,990966796875;	6038,25;	0,0;	0,0
770,1029663085938;	2946,25;	0,0;	0,0
770,2149047851562;	1884,25;	0,0;	0,0
770,3267822265625;	1355,0;	0,0;	0,0
770,4385986328125;	1046,75;	0,0;	0,0
770,5504760742188;	939,5;	0,0;	0,0
770,662353515625;	785,0;	0,0;	0,0
770,7742309570312;	754,5;	0,0;	0,0
770,8860473632812;	694,0;	0,0;	0,0
770,997802734375;	651,25;	0,0;	0,0
771,1095581054688;	575,75;	0,0;	0,0
771,2213134765625;	534,0;	0,0;	0,0
771,3330078125;	563,25;	0,0;	0,0
771,4447631835938;	511,0;	0,0;	0,0
771,5564575195312;	481,0;	0,0;	0,0
771,6680908203125;	501,75;	0,0;	0,0
771,77978515625;	499,0;	0,0;	0,0
771,8914184570312;	461,0;	0,0;	0,0
772,0030517578125;	455,0;	0,0;	0,0
772,1146240234375;	431,5;	0,0;	0,0
772,2261962890625;	477,25;	0,0;	0,0
772,3377685546875;	484,5;	0,0;	0,0
772,4492797851562;	461,0;	0,0;	0,0
772,5608520507812;	479,5;	0,0;	0,0
772,6722412109375;	443,25;	0,0;	0,0
772,78369140625;	423,5;	0,0;	0,0
772,8952026367188;	425,25;	0,0;	0,0
773,0066528320312;	422,0;	0,0;	0,0
773,1181030273438;	440,75;	0,0;	0,0
773,2294921875;	413,5;	0,0;	0,0
773,3408203125;	428,25;	0,0;	0,0
773,4522094726562;	412,5;	0,0;	0,0
773,5635986328125;	409,5;	0,0;	0,0
773,6748657226562;	402,75;	0,0;	0,0
773,7861938476562;	416,75;	0,0;	0,0
773,8974609375;	389,0;	0,0;	0,0
774,0087280273438;	394,75;	0,0;	0,0
774,1199340820312;	448,25;	0,0;	0,0
774,231201171875;	375,75;	0,0;	0,0
774,3424072265625;	397,75;	0,0;	0,0
774,45361328125;	422,0;	0,0;	0,0
774,5647583007812;	413,25;	0,0;	0,0
774,6759033203125;	415,5;	0,0;	0,0
774,7870483398438;	455,25;	0,0;	0,0
774,8981323242188;	389,25;	0,0;	0,0
775,0092163085938;	407,0;	0,0;	0,0
775,1203002929688;	410,0;	0,0;	0,0
775,2313232421875;	403,25;	0,0;	0,0
775,3423461914062;	418,0;	0,0;	0,0
775,453369140625;	403,5;	0,0;	0,0
775,5643920898438;	403,5;	0,0;	0,0
775,6753540039062;	426,0;	0,0;	0,0
775,7863159179688;	404,5;	0,0;	0,0
775,897216796875;	419,5;	0,0;	0,0
776,0081176757812;	425,75;	0,0;	0,0
776,1190185546875;	407,25;	0,0;	0,0
776,2298583984375;	450,5;	0,0;	0,0
776,3407592773438;	447,25;	0,0;	0,0
776,4515991210938;	458,75;	0,0;	0,0
776,5623779296875;	526,25;	0,0;	0,0
776,6732177734375;	575,0;	0,0;	0,0
776,7839965820312;	714,75;	0,0;	0,0
776,8947143554688;	1058,5;	0,0;	0,0
777,0054931640625;	2026,25;	0,0;	0,0
777,1161499023438;	3625,5;	0,0;	0,0
777,2269287109375;	2978,5;	0,0;	0,0
777,3375854492188;	3256,75;	0,0;	0,0
777,4481201171875;	2776,25;	0,0;	0,0
777,558837890625;	1530,5;	0,0;	0,0
777,6693725585938;	820,75;	0,0;	0,0
777,7799682617188;	618,75;	0,0;	0,0
777,890625;	550,25;	0,0;	0,0
778,0011596679688;	546,0;	0,0;	0,0
778,1116943359375;	451,75;	0,0;	0,0
778,2222290039062;	444,75;	0,0;	0,0
778,3327026367188;	427,75;	0,0;	0,0
778,4431762695312;	372,0;	0,0;	0,0
778,5536499023438;	386,0;	0,0;	0,0
778,6640625;	412,75;	0,0;	0,0
778,7744750976562;	363,25;	0,0;	0,0
778,8848876953125;	391,25;	0,0;	0,0
778,9953002929688;	382,0;	0,0;	0,0
779,1056518554688;	359,5;	0,0;	0,0
779,2160034179688;	386,75;	0,0;	0,0
779,3263549804688;	381,0;	0,0;	0,0
779,4365844726562;	366,5;	0,0;	0,0
779,546875;	380,5;	0,0;	0,0
779,6571655273438;	397,75;	0,0;	0,0
779,7673950195312;	448,25;	0,0;	0,0
779,8776245117188;	900,0;	0,0;	0,0
779,9878540039062;	1062,75;	0,0;	0,0
780,0980224609375;	440,75;	0,0;	0,0
780,2081909179688;	362,25;	0,0;	0,0
780,3182983398438;	372,0;	0,0;	0,0
780,428466796875;	368,0;	0,0;	0,0
780,53857421875;	396,75;	0,0;	0,0
780,6486206054688;	391,25;	0,0;	0,0
780,7587280273438;	368,0;	0,0;	0,0
780,8687744140625;	359,0;	0,0;	0,0
780,978759765625;	370,0;	0,0;	0,0
781,0888061523438;	343,75;	0,0;	0,0
781,1987915039062;	375,5;	0,0;	0,0
781,3087768554688;	342,5;	0,0;	0,0
781,418701171875;	366,0;	0,0;	0,0
781,5286254882812;	355,0;	0,0;	0,0
781,6385498046875;	325,25;	0,0;	0,0
781,7484741210938;	352,75;	0,0;	0,0
781,8583374023438;	360,75;	0,0;	0,0
781,9681396484375;	344,5;	0,0;	0,0
782,0780029296875;	330,0;	0,0;	0,0
782,187744140625;	341,0;	0,0;	0,0
782,2975463867188;	349,25;	0,0;	0,0
782,4072875976562;	354,75;	0,0;	0,0
782,51708984375;	373,25;	0,0;	0,0
782,6267700195312;	354,5;	0,0;	0,0
782,7365112304688;	358,0;	0,0;	0,0
782,84619140625;	341,0;	0,0;	0,0
782,955810546875;	343,25;	0,0;	0,0
783,0654907226562;	383,5;	0,0;	0,0
783,1751098632812;	431,75;	0,0;	0,0
783,2847290039062;	333,0;	0,0;	0,0
783,394287109375;	373,5;	0,0;	0,0
783,50390625;	338,0;	0,0;	0,0
783,6134643554688;	352,25;	0,0;	0,0
783,7229614257812;	342,25;	0,0;	0,0
783,83251953125;	358,0;	0,0;	0,0
783,9420166015625;	356,25;	0,0;	0,0
784,0514526367188;	351,0;	0,0;	0,0
784,1609497070312;	341,0;	0,0;	0,0
784,2703247070312;	326,0;	0,0;	0,0
784,3797607421875;	355,0;	0,0;	0,0
784,4891967773438;	325,0;	0,0;	0,0
784,5985717773438;	327,0;	0,0;	0,0
784,7078857421875;	326,0;	0,0;	0,0
784,8172607421875;	322,0;	0,0;	0,0
784,9265747070312;	303,5;	0,0;	0,0
785,0358276367188;	373,0;	0,0;	0,0
785,1451416015625;	342,0;	0,0;	0,0
785,2543334960938;	348,5;	0,0;	0,0
785,3636474609375;	354,0;	0,0;	0,0
785,4728393554688;	330,25;	0,0;	0,0
785,58203125;	360,0;	0,0;	0,0
785,691162109375;	364,5;	0,0;	0,0
785,80029296875;	323,75;	0,0;	0,0
785,9094848632812;	329,0;	0,0;	0,0
786,0186157226562;	329,5;	0,0;	0,0
786,127685546875;	339,0;	0,0;	0,0
786,23681640625;	331,75;	0,0;	0,0
786,3458251953125;	360,75;	0,0;	0,0
786,454833984375;	335,5;	0,0;	0,0
786,5638427734375;	328,75;	0,0;	0,0
786,6727905273438;	339,5;	0,0;	0,0
786,7817993164062;	336,75;	0,0;	0,0
786,8907470703125;	351,75;	0,0;	0,0
786,999755859375;	351,75;	0,0;	0,0
787,108642578125;	345,75;	0,0;	0,0
787,217529296875;	358,75;	0,0;	0,0
787,326416015625;	341,25;	0,0;	0,0
787,4352416992188;	340,75;	0,0;	0,0
787,5440063476562;	317,75;	0,0;	0,0
787,65283203125;	338,75;	0,0;	0,0
787,7616577148438;	340,75;	0,0;	0,0
787,8704223632812;	349,5;	0,0;	0,0
787,979248046875;	332,25;	0,0;	0,0
788,0879516601562;	332,25;	0,0;	0,0
788,1966552734375;	344,25;	0,0;	0,0
788,3053588867188;	364,75;	0,0;	0,0
788,4140625;	352,75;	0,0;	0,0
788,522705078125;	333,0;	0,0;	0,0
788,63134765625;	338,0;	0,0;	0,0
788,7399291992188;	324,5;	0,0;	0,0
788,8485717773438;	333,25;	0,0;	0,0
788,9571533203125;	331,75;	0,0;	0,0
789,065673828125;	338,5;	0,0;	0,0
789,1741943359375;	321,5;	0,0;	0,0
789,28271484375;	354,75;	0,0;	0,0
789,3912353515625;	343,5;	0,0;	0,0
789,499755859375;	351,75;	0,0;	0,0
789,608154296875;	316,75;	0,0;	0,0
789,7166137695312;	323,25;	0,0;	0,0
789,8250732421875;	303,75;	0,0;	0,0
789,9334106445312;	325,75;	0,0;	0,0
790,0418090820312;	334,25;	0,0;	0,0
790,150146484375;	335,75;	0,0;	0,0
790,2584838867188;	343,5;	0,0;	0,0
790,3667602539062;	307,25;	0,0;	0,0
790,4751586914062;	331,25;	0,0;	0,0
790,5833740234375;	326,0;	0,0;	0,0
790,691650390625;	348,25;	0,0;	0,0
790,7998657226562;	350,25;	0,0;	0,0
790,9081420898438;	342,5;	0,0;	0,0
791,0162963867188;	355,0;	0,0;	0,0
791,1244506835938;	346,5;	0,0;	0,0
791,2326049804688;	346,5;	0,0;	0,0
791,3406982421875;	332,0;	0,0;	0,0
791,4488525390625;	341,75;	0,0;	0,0
791,5569458007812;	340,0;	0,0;	0,0
791,6650390625;	303,75;	0,0;	0,0
791,7730102539062;	335,75;	0,0;	0,0
791,881103515625;	342,5;	0,0;	0,0
791,9890747070312;	352,75;	0,0;	0,0
792,0971069335938;	336,0;	0,0;	0,0
792,205078125;	340,75;	0,0;	0,0
792,31298828125;	327,75;	0,0;	0,0
792,4209594726562;	329,75;	0,0;	0,0
792,5288696289062;	355,75;	0,0;	0,0
792,6367797851562;	342,5;	0,0;	0,0
792,74462890625;	327,75;	0,0;	0,0
792,8524780273438;	324,25;	0,0;	0,0
792,9603271484375;	338,25;	0,0;	0,0
793,068115234375;	326,75;	0,0;	0,0
793,1759033203125;	333,75;	0,0;	0,0
793,2837524414062;	346,25;	0,0;	0,0
793,3914794921875;	337,5;	0,0;	0,0
793,4992065429688;	349,0;	0,0;	0,0
793,60693359375;	386,75;	0,0;	0,0
793,714599609375;	383,75;	0,0;	0,0
793,822265625;	338,5;	0,0;	0,0
793,9299926757812;	312,25;	0,0;	0,0
794,03759765625;	324,0;	0,0;	0,0
794,1452026367188;	355,75;	0,0;	0,0
794,2528076171875;	336,25;	0,0;	0,0
794,3603515625;	379,75;	0,0;	0,0
794,4678955078125;	483,0;	0,0;	0,0
794,575439453125;	693,5;	0,0;	0,0
794,6829833984375;	961,75;	0,0;	0,0
794,7904663085938;	582,0;	0,0;	0,0
794,89794921875;	469,75;	0,0;	0,0
795,00537109375;	455,5;	0,0;	0,0
795,11279296875;	456,75;	0,0;	0,0
795,2202758789062;	420,25;	0,0;	0,0
795,3275756835938;	357,0;	0,0;	0,0
795,4349975585938;	339,75;	0,0;	0,0
795,5422973632812;	343,25;	0,0;	0,0
795,649658203125;	341,75;	0,0;	0,0
795,7569580078125;	337,5;	0,0;	0,0
795,8642578125;	330,0;	0,0;	0,0
795,9714965820312;	336,25;	0,0;	0,0
796,0787963867188;	322,5;	0,0;	0,0
796,1859741210938;	310,25;	0,0;	0,0
796,293212890625;	312,25;	0,0;	0,0
796,400390625;	304,0;	0,0;	0,0
796,507568359375;	337,5;	0,0;	0,0
796,6146850585938;	307,75;	0,0;	0,0
796,7218017578125;	335,0;	0,0;	0,0
796,8289794921875;	309,0;	0,0;	0,0
796,93603515625;	338,0;	0,0;	0,0
797,0430908203125;	335,75;	0,0;	0,0
797,150146484375;	331,75;	0,0;	0,0
797,2572021484375;	331,5;	0,0;	0,0
797,3641967773438;	328,5;	0,0;	0,0
797,47119140625;	313,0;	0,0;	0,0
797,578125;	295,25;	0,0;	0,0
797,68505859375;	331,25;	0,0;	0,0
797,7919921875;	304,75;	0,0;	0,0
797,89892578125;	312,75;	0,0;	0,0
798,0057983398438;	306,0;	0,0;	0,0
798,1126708984375;	324,5;	0,0;	0,0
798,219482421875;	314,5;	0,0;	0,0
798,3263549804688;	294,25;	0,0;	0,0
798,4331665039062;	322,75;	0,0;	0,0
798,5399169921875;	300,5;	0,0;	0,0
798,646728515625;	311,75;	0,0;	0,0
798,75341796875;	332,25;	0,0;	0,0
798,8601684570312;	307,0;	0,0;	0,0
798,9668579101562;	323,25;	0,0;	0,0
799,0735473632812;	300,75;	0,0;	0,0
799,18017578125;	310,25;	0,0;	0,0
799,2868041992188;	304,0;	0,0;	0,0
799,3934936523438;	317,0;	0,0;	0,0
799,5000610351562;	319,0;	0,0;	0,0
799,6066284179688;	337,25;	0,0;	0,0
799,7131958007812;	336,5;	0,0;	0,0
799,8197631835938;	388,0;	0,0;	0,0
799,9263305664062;	323,0;	0,0;	0,0
800,0327758789062;	309,0;	0,0;	0,0
800,1392822265625;	324,0;	0,0;	0,0
800,2457275390625;	324,25;	0,0;	0,0
800,3521728515625;	307,5;	0,0;	0,0
800,4586181640625;	320,5;	0,0;	0,0
800,56494140625;	302,5;	0,0;	0,0
800,67138671875;	302,5;	0,0;	0,0
800,7776489257812;	305,5;	0,0;	0,0
800,884033203125;	311,75;	0,0;	0,0
800,9902954101562;	314,25;	0,0;	0,0
801,0966186523438;	313,25;	0,0;	0,0
801,202880859375;	319,25;	0,0;	0,0
801,3091430664062;	321,25;	0,0;	0,0
801,4154052734375;	285,25;	0,0;	0,0
801,5216064453125;	325,5;	0,0;	0,0
801,6278076171875;	315,5;	0,0;	0,0
801,7339477539062;	330,0;	0,0;	0,0
801,8401489257812;	277,5;	0,0;	0,0
801,9462280273438;	307,5;	0,0;	0,0
802,0523681640625;	309,25;	0,0;	0,0
802,158447265625;	288,75;	0,0;	0,0
802,2645263671875;	317,5;	0,0;	0,0
802,37060546875;	314,25;	0,0;	0,0
802,4766235351562;	322,75;	0,0;	0,0
802,5826416015625;	315,5;	0,0;	0,0
802,6885986328125;	333,25;	0,0;	0,0
802,7945556640625;	300,25;	0,0;	0,0
802,9005737304688;	324,0;	0,0;	0,0
803,0065307617188;	328,75;	0,0;	0,0
803,1124267578125;	299,75;	0,0;	0,0
803,2183227539062;	292,5;	0,0;	0,0
803,3241577148438;	322,0;	0,0;	0,0
803,4299926757812;	303,0;	0,0;	0,0
803,5358276367188;	320,25;	0,0;	0,0
803,6416015625;	288,75;	0,0;	0,0
803,7474365234375;	304,75;	0,0;	0,0
803,8532104492188;	284,0;	0,0;	0,0
803,9589233398438;	315,0;	0,0;	0,0
804,0646362304688;	292,5;	0,0;	0,0
804,17041015625;	306,75;	0,0;	0,0
804,2760009765625;	307,75;	0,0;	0,0
804,3817138671875;	338,5;	0,0;	0,0
804,4873657226562;	386,5;	0,0;	0,0
804,5929565429688;	365,75;	0,0;	0,0
804,6985473632812;	324,75;	0,0;	0,0
804,80419921875;	305,75;	0,0;	0,0
804,9097290039062;	295,75;	0,0;	0,0
805,0153198242188;	290,75;	0,0;	0,0
805,1207275390625;	301,25;	0,0;	0,0
805,226318359375;	298,25;	0,0;	0,0
805,3316650390625;	300,25;	0,0;	0,0
805,437255859375;	325,25;	0,0;	0,0
805,5426635742188;	290,25;	0,0;	0,0
805,6481323242188;	296,0;	0,0;	0,0
805,75341796875;	276,0;	0,0;	0,0
805,8588256835938;	303,0;	0,0;	0,0
805,9641723632812;	299,0;	0,0;	0,0
806,0695190429688;	307,0;	0,0;	0,0
806,1748657226562;	296,5;	0,0;	0,0
806,2801513671875;	314,0;	0,0;	0,0
806,3853759765625;	327,5;	0,0;	0,0
806,4906005859375;	306,0;	0,0;	0,0
806,5958862304688;	325,0;	0,0;	0,0
806,7011108398438;	303,75;	0,0;	0,0
806,8062744140625;	303,5;	0,0;	0,0
806,9114379882812;	300,75;	0,0;	0,0
807,0166625976562;	310,5;	0,0;	0,0
807,1217041015625;	294,5;	0,0;	0,0
807,2268676757812;	297,75;	0,0;	0,0
807,3319091796875;	307,75;	0,0;	0,0
807,43701171875;	296,25;	0,0;	0,0
807,5420532226562;	296,25;	0,0;	0,0
807,6470947265625;	317,25;	0,0;	0,0
807,7521362304688;	298,75;	0,0;	0,0
807,8571166992188;	301,75;	0,0;	0,0
807,9620361328125;	294,5;	0,0;	0,0
808,0669555664062;	296,5;	0,0;	0,0
808,1719360351562;	297,5;	0,0;	0,0
808,27685546875;	299,75;	0,0;	0,0
808,3817138671875;	331,75;	0,0;	0,0
808,486572265625;	350,25;	0,0;	0,0
808,5914306640625;	284,75;	0,0;	0,0
808,6962890625;	276,25;	0,0;	0,0
808,8010864257812;	287,25;	0,0;	0,0
808,9058837890625;	294,75;	0,0;	0,0
809,0105590820312;	300,5;	0,0;	0,0
809,1152954101562;	337,25;	0,0;	0,0
809,2200317382812;	328,0;	0,0;	0,0
809,3247680664062;	307,5;	0,0;	0,0
809,4293823242188;	286,75;	0,0;	0,0
809,5341186523438;	308,75;	0,0;	0,0
809,6386108398438;	305,5;	0,0;	0,0
809,7433471679688;	277,0;	0,0;	0,0
809,847900390625;	312,25;	0,0;	0,0
809,9525146484375;	306,25;	0,0;	0,0
810,0570068359375;	302,25;	0,0;	0,0
810,16162109375;	275,25;	0,0;	0,0
810,2660522460938;	305,0;	0,0;	0,0
810,3705444335938;	305,5;	0,0;	0,0
810,4750366210938;	298,5;	0,0;	0,0
810,5794677734375;	321,5;	0,0;	0,0
810,6838989257812;	297,5;	0,0;	0,0
810,7882690429688;	303,0;	0,0;	0,0
810,8927001953125;	292,75;	0,0;	0,0
810,9970703125;	286,25;	0,0;	0,0
811,1013793945312;	304,75;	0,0;	0,0
811,2057495117188;	320,75;	0,0;	0,0
811,31005859375;	317,0;	0,0;	0,0
811,414306640625;	319,75;	0,0;	0,0
811,5186157226562;	308,0;	0,0;	0,0
811,6228637695312;	322,75;	0,0;	0,0
811,7271118164062;	287,25;	0,0;	0,0
811,8312377929688;	304,0;	0,0;	0,0
811,9354858398438;	289,75;	0,0;	0,0
812,0396118164062;	299,0;	0,0;	0,0
812,1437377929688;	286,25;	0,0;	0,0
812,2478637695312;	295,0;	0,0;	0,0
812,3519897460938;	321,5;	0,0;	0,0
812,4560546875;	331,75;	0,0;	0,0
812,5601196289062;	354,5;	0,0;	0,0
812,6641235351562;	297,0;	0,0;	0,0
812,7681884765625;	291,0;	0,0;	0,0
812,8721313476562;	309,25;	0,0;	0,0
812,9761352539062;	295,75;	0,0;	0,0
813,0801391601562;	309,25;	0,0;	0,0
813,1840209960938;	300,5;	0,0;	0,0
813,2879638671875;	300,0;	0,0;	0,0
813,391845703125;	306,0;	0,0;	0,0
813,4957275390625;	303,75;	0,0;	0,0
813,5995483398438;	297,5;	0,0;	0,0
813,703369140625;	299,75;	0,0;	0,0
813,8071899414062;	289,0;	0,0;	0,0
813,9110107421875;	306,0;	0,0;	0,0
814,0147094726562;	289,25;	0,0;	0,0
814,118408203125;	291,75;	0,0;	0,0
814,2222290039062;	280,75;	0,0;	0,0
814,3258666992188;	302,5;	0,0;	0,0
814,4295654296875;	297,5;	0,0;	0,0
814,533203125;	276,0;	0,0;	0,0
814,6369018554688;	294,25;	0,0;	0,0
814,740478515625;	309,25;	0,0;	0,0
814,8440551757812;	318,25;	0,0;	0,0
814,9476928710938;	303,25;	0,0;	0,0
815,0512084960938;	286,0;	0,0;	0,0
815,15478515625;	296,0;	0,0;	0,0
815,25830078125;	299,0;	0,0;	0,0
815,3617553710938;	304,5;	0,0;	0,0
815,4652099609375;	308,0;	0,0;	0,0
815,5686645507812;	311,0;	0,0;	0,0
815,6721801757812;	299,5;	0,0;	0,0
815,7755737304688;	303,5;	0,0;	0,0
815,8789672851562;	288,25;	0,0;	0,0
815,9823608398438;	310,0;	0,0;	0,0
816,085693359375;	303,0;	0,0;	0,0
816,18896484375;	310,25;	0,0;	0,0
816,2922973632812;	314,25;	0,0;	0,0
816,3955688476562;	305,0;	0,0;	0,0
816,4989013671875;	304,0;	0,0;	0,0
816,6021118164062;	295,0;	0,0;	0,0
816,705322265625;	309,5;	0,0;	0,0
816,8085327148438;	319,0;	0,0;	0,0
816,9117431640625;	311,0;	0,0;	0,0
817,014892578125;	288,0;	0,0;	0,0
817,1180419921875;	282,5;	0,0;	0,0
817,22119140625;	321,75;	0,0;	0,0
817,32421875;	319,5;	0,0;	0,0
817,4273681640625;	324,5;	0,0;	0,0
817,5303955078125;	345,5;	0,0;	0,0
817,6334228515625;	348,25;	0,0;	0,0
817,7365112304688;	386,75;	0,0;	0,0
817,8394775390625;	381,75;	0,0;	0,0
817,9424438476562;	447,75;	0,0;	0,0
818,04541015625;	711,25;	0,0;	0,0
818,1483154296875;	1480,5;	0,0;	0,0
818,251220703125;	3159,25;	0,0;	0,0
818,3541259765625;	1644,25;	0,0;	0,0
818,45703125;	1126,75;	0,0;	0,0
818,5598754882812;	752,5;	0,0;	0,0
818,6627197265625;	867,75;	0,0;	0,0
818,7654418945312;	942,5;	0,0;	0,0
818,8682861328125;	682,5;	0,0;	0,0
818,9710083007812;	532,25;	0,0;	0,0
819,0737915039062;	563,75;	0,0;	0,0
819,1764526367188;	783,75;	0,0;	0,0
819,2791137695312;	1699,25;	0,0;	0,0
819,3818359375;	4130,25;	0,0;	0,0
819,4844970703125;	2694,0;	0,0;	0,0
819,587158203125;	757,25;	0,0;	0,0
819,6897583007812;	476,75;	0,0;	0,0
819,7923583984375;	426,5;	0,0;	0,0
819,8949584960938;	420,0;	0,0;	0,0
819,9974975585938;	469,5;	0,0;	0,0
820,1000366210938;	396,5;	0,0;	0,0
820,2025146484375;	385,25;	0,0;	0,0
820,3050537109375;	322,25;	0,0;	0,0
820,4075317382812;	332,5;	0,0;	0,0
820,5099487304688;	339,25;	0,0;	0,0
820,6123657226562;	342,75;	0,0;	0,0
820,7147827148438;	376,5;	0,0;	0,0
820,8171997070312;	399,0;	0,0;	0,0
820,9196166992188;	514,25;	0,0;	0,0
821,0219116210938;	589,5;	0,0;	0,0
821,1242065429688;	515,75;	0,0;	0,0
821,2265625;	470,25;	0,0;	0,0
821,3287963867188;	603,5;	0,0;	0,0
821,4310913085938;	913,5;	0,0;	0,0
821,5333251953125;	1609,75;	0,0;	0,0
821,6355590820312;	1382,25;	0,0;	0,0
821,7377319335938;	768,0;	0,0;	0,0
821,8399658203125;	609,75;	0,0;	0,0
821,9420776367188;	626,25;	0,0;	0,0
822,044189453125;	584,25;	0,0;	0,0
822,1463623046875;	721,5;	0,0;	0,0
822,2484741210938;	923,5;	0,0;	0,0
822,3505249023438;	657,75;	0,0;	0,0
822,4525756835938;	460,5;	0,0;	0,0
822,5546264648438;	364,0;	0,0;	0,0
822,6566162109375;	357,75;	0,0;	0,0
822,7586059570312;	364,75;	0,0;	0,0
822,860595703125;	334,25;	0,0;	0,0
822,9625244140625;	383,75;	0,0;	0,0
823,064453125;	336,5;	0,0;	0,0
823,166259765625;	349,25;	0,0;	0,0
823,2682495117188;	340,75;	0,0;	0,0
823,3700561523438;	322,0;	0,0;	0,0
823,471923828125;	335,75;	0,0;	0,0
823,57373046875;	320,75;	0,0;	0,0
823,6754760742188;	310,5;	0,0;	0,0
823,7772827148438;	364,25;	0,0;	0,0
823,8790283203125;	347,0;	0,0;	0,0
823,9807739257812;	407,25;	0,0;	0,0
824,08251953125;	682,75;	0,0;	0,0
824,1842041015625;	885,75;	0,0;	0,0
824,285888671875;	605,5;	0,0;	0,0
824,3875122070312;	416,5;	0,0;	0,0
824,4891357421875;	347,0;	0,0;	0,0
824,5908203125;	325,25;	0,0;	0,0
824,6923828125;	290,75;	0,0;	0,0
824,7938842773438;	302,25;	0,0;	0,0
824,8954467773438;	305,75;	0,0;	0,0
824,9969482421875;	316,5;	0,0;	0,0
825,0985107421875;	298,5;	0,0;	0,0
825,2000122070312;	298,75;	0,0;	0,0
825,3014526367188;	286,5;	0,0;	0,0
825,4028930664062;	279,75;	0,0;	0,0
825,5043334960938;	272,75;	0,0;	0,0
825,6056518554688;	282,25;	0,0;	0,0
825,7070922851562;	293,25;	0,0;	0,0
825,8084106445312;	292,75;	0,0;	0,0
825,9097900390625;	284,25;	0,0;	0,0
826,0110473632812;	296,25;	0,0;	0,0
826,1124267578125;	291,0;	0,0;	0,0
826,2136840820312;	261,0;	0,0;	0,0
826,3148803710938;	299,25;	0,0;	0,0
826,4161376953125;	291,0;	0,0;	0,0
826,517333984375;	306,0;	0,0;	0,0
826,6185302734375;	278,5;	0,0;	0,0
826,7197265625;	278,0;	0,0;	0,0
826,82080078125;	282,0;	0,0;	0,0
826,9219360351562;	282,5;	0,0;	0,0
827,0230712890625;	293,5;	0,0;	0,0
827,1241455078125;	298,25;	0,0;	0,0
827,2252197265625;	248,5;	0,0;	0,0
827,3262939453125;	309,0;	0,0;	0,0
827,42724609375;	278,75;	0,0;	0,0
827,5281982421875;	274,75;	0,0;	0,0
827,6292114257812;	275,5;	0,0;	0,0
827,7301635742188;	282,75;	0,0;	0,0
827,8311157226562;	270,0;	0,0;	0,0
827,9320068359375;	264,25;	0,0;	0,0
828,0328369140625;	288,75;	0,0;	0,0
828,1337890625;	255,75;	0,0;	0,0
828,234619140625;	290,75;	0,0;	0,0
828,3353881835938;	276,0;	0,0;	0,0
828,4362182617188;	299,5;	0,0;	0,0
828,5369873046875;	274,75;	0,0;	0,0
828,6377563476562;	276,75;	0,0;	0,0
828,7384643554688;	299,75;	0,0;	0,0
828,8392333984375;	287,0;	0,0;	0,0
828,93994140625;	277,75;	0,0;	0,0
829,0405883789062;	289,75;	0,0;	0,0
829,1412963867188;	295,75;	0,0;	0,0
829,241943359375;	287,25;	0,0;	0,0
829,3424682617188;	282,5;	0,0;	0,0
829,443115234375;	292,75;	0,0;	0,0
829,543701171875;	284,25;	0,0;	0,0
829,6442260742188;	280,25;	0,0;	0,0
829,7447509765625;	286,5;	0,0;	0,0
829,8452758789062;	266,25;	0,0;	0,0
829,94580078125;	294,75;	0,0;	0,0
830,0462036132812;	286,0;	0,0;	0,0
830,1466674804688;	275,0;	0,0;	0,0
830,2470703125;	276,75;	0,0;	0,0
830,3475341796875;	282,0;	0,0;	0,0
830,4478759765625;	280,25;	0,0;	0,0
830,5482177734375;	281,0;	0,0;	0,0
830,6485595703125;	275,5;	0,0;	0,0
830,7489013671875;	271,75;	0,0;	0,0
830,8491821289062;	262,0;	0,0;	0,0
830,949462890625;	271,5;	0,0;	0,0
831,0497436523438;	285,0;	0,0;	0,0
831,14990234375;	285,75;	0,0;	0,0
831,2501220703125;	290,75;	0,0;	0,0
831,350341796875;	271,0;	0,0;	0,0
831,4505004882812;	282,25;	0,0;	0,0
831,5506591796875;	263,5;	0,0;	0,0
831,6507568359375;	264,75;	0,0;	0,0
831,7508544921875;	278,75;	0,0;	0,0
831,8508911132812;	289,0;	0,0;	0,0
831,9510498046875;	268,5;	0,0;	0,0
832,051025390625;	248,75;	0,0;	0,0
832,1510620117188;	296,25;	0,0;	0,0
832,2509765625;	273,25;	0,0;	0,0
832,3509521484375;	303,5;	0,0;	0,0
832,4509887695312;	305,75;	0,0;	0,0
832,5509033203125;	387,75;	0,0;	0,0
832,6508178710938;	376,5;	0,0;	0,0
832,7506103515625;	267,0;	0,0;	0,0
832,8505249023438;	292,25;	0,0;	0,0
832,9503784179688;	291,25;	0,0;	0,0
833,0502319335938;	298,75;	0,0;	0,0
833,1500244140625;	312,75;	0,0;	0,0
833,249755859375;	296,0;	0,0;	0,0
833,3495483398438;	304,0;	0,0;	0,0
833,4492797851562;	288,5;	0,0;	0,0
833,5490112304688;	259,75;	0,0;	0,0
833,648681640625;	274,25;	0,0;	0,0
833,7484130859375;	271,5;	0,0;	0,0
833,8480224609375;	314,0;	0,0;	0,0
833,9476318359375;	268,25;	0,0;	0,0
834,0473022460938;	282,25;	0,0;	0,0
834,1468505859375;	293,5;	0,0;	0,0
834,2464599609375;	287,75;	0,0;	0,0
834,3460083007812;	274,5;	0,0;	0,0
834,4454956054688;	250,0;	0,0;	0,0
834,5450439453125;	291,5;	0,0;	0,0
834,64453125;	256,25;	0,0;	0,0
834,7439575195312;	252,25;	0,0;	0,0
834,8433837890625;	286,75;	0,0;	0,0
834,9428100585938;	275,0;	0,0;	0,0
835,042236328125;	267,25;	0,0;	0,0
835,1415405273438;	292,0;	0,0;	0,0
835,2409057617188;	274,0;	0,0;	0,0
835,3402709960938;	283,25;	0,0;	0,0
835,4395751953125;	270,5;	0,0;	0,0
835,538818359375;	265,0;	0,0;	0,0
835,6381225585938;	274,5;	0,0;	0,0
835,7373657226562;	283,0;	0,0;	0,0
835,8366088867188;	268,5;	0,0;	0,0
835,9358520507812;	270,75;	0,0;	0,0
836,0350341796875;	296,0;	0,0;	0,0
836,1340942382812;	266,75;	0,0;	0,0
836,2332763671875;	278,0;	0,0;	0,0
836,3323364257812;	268,25;	0,0;	0,0
836,4315185546875;	276,25;	0,0;	0,0
836,530517578125;	268,0;	0,0;	0,0
836,6295776367188;	261,25;	0,0;	0,0
836,7285766601562;	292,5;	0,0;	0,0
836,82763671875;	288,0;	0,0;	0,0
836,9265747070312;	270,5;	0,0;	0,0
837,0255737304688;	286,5;	0,0;	0,0
837,1244506835938;	251,5;	0,0;	0,0
837,2234497070312;	268,75;	0,0;	0,0
837,3223266601562;	288,0;	0,0;	0,0
837,4212036132812;	289,75;	0,0;	0,0
837,5200805664062;	286,75;	0,0;	0,0
837,618896484375;	282,25;	0,0;	0,0
837,7177124023438;	274,75;	0,0;	0,0
837,8165283203125;	270,0;	0,0;	0,0
837,915283203125;	273,25;	0,0;	0,0
838,0140380859375;	265,25;	0,0;	0,0
838,11279296875;	278,5;	0,0;	0,0
838,2114868164062;	281,75;	0,0;	0,0
838,3101196289062;	264,5;	0,0;	0,0
838,4088134765625;	267,0;	0,0;	0,0
838,5075073242188;	305,5;	0,0;	0,0
838,6061401367188;	336,25;	0,0;	0,0
838,7047119140625;	408,75;	0,0;	0,0
838,8032836914062;	294,75;	0,0;	0,0
838,9017944335938;	264,0;	0,0;	0,0
839,0003662109375;	302,75;	0,0;	0,0
839,098876953125;	279,0;	0,0;	0,0
839,1973876953125;	276,75;	0,0;	0,0
839,2958374023438;	245,25;	0,0;	0,0
839,394287109375;	255,5;	0,0;	0,0
839,4927368164062;	291,25;	0,0;	0,0
839,5911254882812;	274,5;	0,0;	0,0
839,6895141601562;	247,75;	0,0;	0,0
839,787841796875;	296,5;	0,0;	0,0
839,8861694335938;	282,75;	0,0;	0,0
839,9844970703125;	270,0;	0,0;	0,0
840,0828247070312;	285,75;	0,0;	0,0
840,1810913085938;	278,25;	0,0;	0,0
840,2793579101562;	269,25;	0,0;	0,0
840,3775024414062;	269,25;	0,0;	0,0
840,475830078125;	279,0;	0,0;	0,0
840,5739135742188;	294,25;	0,0;	0,0
840,6721801757812;	292,5;	0,0;	0,0
840,770263671875;	276,0;	0,0;	0,0
840,868408203125;	282,0;	0,0;	0,0
840,9664916992188;	283,5;	0,0;	0,0
841,0645751953125;	264,5;	0,0;	0,0
841,16259765625;	274,75;	0,0;	0,0
841,2606201171875;	263,0;	0,0;	0,0
841,3587036132812;	279,0;	0,0;	0,0
841,4566650390625;	284,25;	0,0;	0,0
841,5546264648438;	270,25;	0,0;	0,0
841,652587890625;	277,25;	0,0;	0,0
841,75048828125;	288,0;	0,0;	0,0
841,8484497070312;	292,5;	0,0;	0,0
841,9463500976562;	277,0;	0,0;	0,0
842,0441284179688;	288,5;	0,0;	0,0
842,1420288085938;	277,0;	0,0;	0,0
842,2398681640625;	272,5;	0,0;	0,0
842,337646484375;	279,25;	0,0;	0,0
842,4353637695312;	281,5;	0,0;	0,0
842,533203125;	269,25;	0,0;	0,0
842,6309204101562;	272,5;	0,0;	0,0
842,7285766601562;	285,75;	0,0;	0,0
842,8263549804688;	273,0;	0,0;	0,0
842,9240112304688;	281,75;	0,0;	0,0
843,0216064453125;	267,5;	0,0;	0,0
843,1192626953125;	280,75;	0,0;	0,0
843,2168579101562;	268,25;	0,0;	0,0
843,314453125;	276,0;	0,0;	0,0
843,4120483398438;	293,25;	0,0;	0,0
843,509521484375;	269,25;	0,0;	0,0
843,6070556640625;	297,25;	0,0;	0,0
843,7045288085938;	277,5;	0,0;	0,0
843,802001953125;	301,5;	0,0;	0,0
843,8994750976562;	307,5;	0,0;	0,0
843,9968872070312;	362,0;	0,0;	0,0
844,0942993164062;	348,5;	0,0;	0,0
844,191650390625;	366,25;	0,0;	0,0
844,2890014648438;	442,25;	0,0;	0,0
844,3863525390625;	604,25;	0,0;	0,0
844,4837036132812;	936,0;	0,0;	0,0
844,5809326171875;	1237,25;	0,0;	0,0
844,6782836914062;	907,0;	0,0;	0,0
844,7754516601562;	543,0;	0,0;	0,0
844,872802734375;	424,5;	0,0;	0,0
844,9699096679688;	341,5;	0,0;	0,0
845,0671997070312;	327,5;	0,0;	0,0
845,164306640625;	303,5;	0,0;	0,0
845,2614135742188;	294,0;	0,0;	0,0
845,3585815429688;	302,25;	0,0;	0,0
845,4556884765625;	280,25;	0,0;	0,0
845,552734375;	281,25;	0,0;	0,0
845,6498413085938;	287,75;	0,0;	0,0
845,746826171875;	289,5;	0,0;	0,0
845,8438720703125;	281,0;	0,0;	0,0
845,9408569335938;	289,0;	0,0;	0,0
846,037841796875;	281,0;	0,0;	0,0
846,134765625;	301,25;	0,0;	0,0
846,231689453125;	288,75;	0,0;	0,0
846,32861328125;	260,0;	0,0;	0,0
846,4254760742188;	278,5;	0,0;	0,0
846,5223388671875;	268,0;	0,0;	0,0
846,6192016601562;	300,5;	0,0;	0,0
846,716064453125;	298,75;	0,0;	0,0
846,8128051757812;	282,5;	0,0;	0,0
846,9096069335938;	260,75;	0,0;	0,0
847,00634765625;	276,0;	0,0;	0,0
847,1030883789062;	255,25;	0,0;	0,0
847,1998291015625;	268,25;	0,0;	0,0
847,2964477539062;	259,75;	0,0;	0,0
847,3931274414062;	274,25;	0,0;	0,0
847,4898071289062;	279,0;	0,0;	0,0
847,58642578125;	267,0;	0,0;	0,0
847,6829833984375;	281,5;	0,0;	0,0
847,779541015625;	261,25;	0,0;	0,0
847,8760986328125;	291,0;	0,0;	0,0
847,97265625;	266,5;	0,0;	0,0
848,0691528320312;	264,0;	0,0;	0,0
848,1656494140625;	261,25;	0,0;	0,0
848,2621459960938;	262,5;	0,0;	0,0
848,3585815429688;	282,0;	0,0;	0,0
848,4549560546875;	251,75;	0,0;	0,0
848,5513305664062;	264,0;	0,0;	0,0
848,6478271484375;	264,0;	0,0;	0,0
848,7440795898438;	283,25;	0,0;	0,0
848,8405151367188;	261,5;	0,0;	0,0
848,936767578125;	264,25;	0,0;	0,0
849,0330810546875;	285,5;	0,0;	0,0
849,1293334960938;	266,0;	0,0;	0,0
849,2256469726562;	278,0;	0,0;	0,0
849,32177734375;	282,25;	0,0;	0,0
849,4180297851562;	285,0;	0,0;	0,0
849,51416015625;	277,75;	0,0;	0,0
849,6103515625;	308,5;	0,0;	0,0
849,7064819335938;	299,0;	0,0;	0,0
849,8026123046875;	299,0;	0,0;	0,0
849,898681640625;	270,5;	0,0;	0,0
849,9947509765625;	279,75;	0,0;	0,0
850,0908203125;	278,75;	0,0;	0,0
850,1868286132812;	273,5;	0,0;	0,0
850,2828979492188;	266,5;	0,0;	0,0
850,3788452148438;	272,75;	0,0;	0,0
850,474853515625;	263,75;	0,0;	0,0
850,5707397460938;	274,25;	0,0;	0,0
850,6666870117188;	251,25;	0,0;	0,0
850,7625732421875;	253,75;	0,0;	0,0
850,8583984375;	269,25;	0,0;	0,0
850,9542846679688;	286,25;	0,0;	0,0
851,0501098632812;	262,5;	0,0;	0,0
851,1459350585938;	270,0;	0,0;	0,0
851,24169921875;	286,25;	0,0;	0,0
851,3374633789062;	303,5;	0,0;	0,0
851,4332275390625;	253,0;	0,0;	0,0
851,5289306640625;	247,75;	0,0;	0,0
851,6246337890625;	271,0;	0,0;	0,0
851,7203369140625;	264,0;	0,0;	0,0
851,8159790039062;	288,75;	0,0;	0,0
851,91162109375;	257,0;	0,0;	0,0
852,0072631835938;	284,75;	0,0;	0,0
852,1028442382812;	293,0;	0,0;	0,0
852,1983642578125;	273,0;	0,0;	0,0
852,2939453125;	275,75;	0,0;	0,0
852,3894653320312;	283,5;	0,0;	0,0
852,4849853515625;	265,75;	0,0;	0,0
852,5804443359375;	270,5;	0,0;	0,0
852,6758422851562;	273,0;	0,0;	0,0
852,7713012695312;	268,25;	0,0;	0,0
852,86669921875;	244,75;	0,0;	0,0
852,962158203125;	253,75;	0,0;	0,0
853,0574340820312;	259,75;	0,0;	0,0
853,15283203125;	266,5;	0,0;	0,0
853,2481689453125;	278,5;	0,0;	0,0
853,343505859375;	272,75;	0,0;	0,0
853,4386596679688;	262,75;	0,0;	0,0
853,5340576171875;	252,75;	0,0;	0,0
853,6292114257812;	274,25;	0,0;	0,0
853,7244262695312;	271,25;	0,0;	0,0
853,819580078125;	298,75;	0,0;	0,0
853,9147338867188;	316,75;	0,0;	0,0
854,0098876953125;	413,75;	0,0;	0,0
854,1050415039062;	568,0;	0,0;	0,0
854,2001342773438;	433,0;	0,0;	0,0
854,2952270507812;	298,75;	0,0;	0,0
854,3903198242188;	314,75;	0,0;	0,0
854,4852905273438;	286,25;	0,0;	0,0
854,580322265625;	268,0;	0,0;	0,0
854,6753540039062;	259,5;	0,0;	0,0
854,7703247070312;	259,25;	0,0;	0,0
854,865234375;	273,25;	0,0;	0,0
854,960205078125;	278,5;	0,0;	0,0
855,0551147460938;	264,0;	0,0;	0,0
855,1499633789062;	266,25;	0,0;	0,0
855,2448120117188;	257,5;	0,0;	0,0
855,3396606445312;	249,5;	0,0;	0,0
855,4344482421875;	266,75;	0,0;	0,0
855,5292358398438;	256,5;	0,0;	0,0
855,6240234375;	255,5;	0,0;	0,0
855,7188110351562;	288,25;	0,0;	0,0
855,8135375976562;	276,25;	0,0;	0,0
855,9082641601562;	277,75;	0,0;	0,0
856,0029296875;	253,25;	0,0;	0,0
856,0975952148438;	284,25;	0,0;	0,0
856,1921997070312;	258,0;	0,0;	0,0
856,286865234375;	265,0;	0,0;	0,0
856,3814086914062;	264,75;	0,0;	0,0
856,4760131835938;	299,0;	0,0;	0,0
856,570556640625;	314,5;	0,0;	0,0
856,6651000976562;	348,0;	0,0;	0,0
856,759521484375;	341,5;	0,0;	0,0
856,8540649414062;	332,75;	0,0;	0,0
856,948486328125;	284,5;	0,0;	0,0
857,04296875;	288,75;	0,0;	0,0
857,1373291015625;	301,5;	0,0;	0,0
857,2317504882812;	270,75;	0,0;	0,0
857,3261108398438;	264,75;	0,0;	0,0
857,4204711914062;	266,25;	0,0;	0,0
857,5147705078125;	274,25;	0,0;	0,0
857,609130859375;	268,75;	0,0;	0,0
857,703369140625;	267,75;	0,0;	0,0
857,797607421875;	263,25;	0,0;	0,0
857,891845703125;	288,0;	0,0;	0,0
857,986083984375;	282,5;	0,0;	0,0
858,0802612304688;	284,75;	0,0;	0,0
858,1744384765625;	288,75;	0,0;	0,0
858,2686157226562;	257,0;	0,0;	0,0
858,3627319335938;	272,5;	0,0;	0,0
858,4568481445312;	280,25;	0,0;	0,0
858,5509033203125;	263,75;	0,0;	0,0
858,6449584960938;	275,25;	0,0;	0,0
858,739013671875;	278,0;	0,0;	0,0
858,8330078125;	242,25;	0,0;	0,0
858,927001953125;	279,5;	0,0;	0,0
859,0209350585938;	292,25;	0,0;	0,0
859,1149291992188;	304,5;	0,0;	0,0
859,2088623046875;	363,5;	0,0;	0,0
859,302734375;	485,5;	0,0;	0,0
859,3966674804688;	491,75;	0,0;	0,0
859,4905395507812;	374,0;	0,0;	0,0
859,5843505859375;	315,25;	0,0;	0,0
859,6781616210938;	326,75;	0,0;	0,0
859,77197265625;	308,25;	0,0;	0,0
859,86572265625;	312,75;	0,0;	0,0
859,95947265625;	295,0;	0,0;	0,0
860,05322265625;	285,5;	0,0;	0,0
860,1469116210938;	261,25;	0,0;	0,0
860,2406005859375;	275,0;	0,0;	0,0
860,3342895507812;	285,25;	0,0;	0,0
860,4278564453125;	272,5;	0,0;	0,0
860,521484375;	278,25;	0,0;	0,0
860,6151123046875;	250,0;	0,0;	0,0
860,7086791992188;	286,0;	0,0;	0,0
860,8021240234375;	265,5;	0,0;	0,0
860,8956909179688;	279,25;	0,0;	0,0
860,9891357421875;	270,0;	0,0;	0,0
861,0827026367188;	288,5;	0,0;	0,0
861,1760864257812;	272,0;	0,0;	0,0
861,2695922851562;	280,75;	0,0;	0,0
861,3629760742188;	260,0;	0,0;	0,0
861,4563598632812;	253,5;	0,0;	0,0
861,5497436523438;	264,25;	0,0;	0,0
861,64306640625;	282,0;	0,0;	0,0
861,7363891601562;	275,75;	0,0;	0,0
861,8296508789062;	291,5;	0,0;	0,0
861,9229736328125;	288,25;	0,0;	0,0
862,0162353515625;	277,0;	0,0;	0,0
862,1094360351562;	277,0;	0,0;	0,0
862,20263671875;	301,25;	0,0;	0,0
862,2958374023438;	269,75;	0,0;	0,0
862,3890380859375;	306,0;	0,0;	0,0
862,482177734375;	319,0;	0,0;	0,0
862,5753173828125;	360,5;	0,0;	0,0
862,6683959960938;	422,5;	0,0;	0,0
862,761474609375;	594,25;	0,0;	0,0
862,8545532226562;	724,0;	0,0;	0,0
862,9475708007812;	658,5;	0,0;	0,0
863,0405883789062;	498,75;	0,0;	0,0
863,133544921875;	363,75;	0,0;	0,0
863,2265625;	348,5;	0,0;	0,0
863,3194580078125;	309,0;	0,0;	0,0
863,412353515625;	327,25;	0,0;	0,0
863,5052490234375;	299,25;	0,0;	0,0
863,59814453125;	284,25;	0,0;	0,0
863,6909790039062;	275,75;	0,0;	0,0
863,7838134765625;	267,5;	0,0;	0,0
863,8766479492188;	271,0;	0,0;	0,0
863,9694213867188;	274,5;	0,0;	0,0
864,0621948242188;	273,0;	0,0;	0,0
864,1549072265625;	269,25;	0,0;	0,0
864,2476806640625;	284,75;	0,0;	0,0
864,34033203125;	295,0;	0,0;	0,0
864,4330444335938;	284,75;	0,0;	0,0
864,5256958007812;	263,5;	0,0;	0,0
864,6182861328125;	282,5;	0,0;	0,0
864,7109375;	273,25;	0,0;	0,0
864,803466796875;	284,5;	0,0;	0,0
864,8960571289062;	271,25;	0,0;	0,0
864,988525390625;	286,75;	0,0;	0,0
865,0811157226562;	291,25;	0,0;	0,0
865,1735229492188;	297,0;	0,0;	0,0
865,2660522460938;	287,75;	0,0;	0,0
865,3584594726562;	322,0;	0,0;	0,0
865,4509887695312;	355,25;	0,0;	0,0
865,5432739257812;	391,0;	0,0;	0,0
865,6357421875;	353,5;	0,0;	0,0
865,72802734375;	327,25;	0,0;	0,0
865,8203125;	331,0;	0,0;	0,0
865,9127197265625;	360,5;	0,0;	0,0
866,0049438476562;	421,5;	0,0;	0,0
866,0972290039062;	489,25;	0,0;	0,0
866,189453125;	450,5;	0,0;	0,0
866,2816772460938;	322,5;	0,0;	0,0
866,3739013671875;	276,75;	0,0;	0,0
866,466064453125;	275,25;	0,0;	0,0
866,5582275390625;	305,5;	0,0;	0,0
866,6503295898438;	293,25;	0,0;	0,0
866,7424926757812;	270,25;	0,0;	0,0
866,8345336914062;	277,75;	0,0;	0,0
866,9266357421875;	316,0;	0,0;	0,0
867,0186767578125;	313,25;	0,0;	0,0
867,1107177734375;	317,0;	0,0;	0,0
867,2026977539062;	310,5;	0,0;	0,0
867,294677734375;	327,75;	0,0;	0,0
867,3865966796875;	346,5;	0,0;	0,0
867,478515625;	371,5;	0,0;	0,0
867,5704345703125;	418,0;	0,0;	0,0
867,662353515625;	542,25;	0,0;	0,0
867,7542114257812;	800,75;	0,0;	0,0
867,8460693359375;	1114,75;	0,0;	0,0
867,9378662109375;	1416,75;	0,0;	0,0
868,0296630859375;	1368,0;	0,0;	0,0
868,1213989257812;	1027,5;	0,0;	0,0
868,2131958007812;	1036,75;	0,0;	0,0
868,3048706054688;	1094,75;	0,0;	0,0
868,3965454101562;	783,25;	0,0;	0,0
868,48828125;	746,0;	0,0;	0,0
868,5799560546875;	686,75;	0,0;	0,0
868,6715698242188;	589,25;	0,0;	0,0
868,7631225585938;	550,75;	0,0;	0,0
868,8547973632812;	442,5;	0,0;	0,0
868,9462890625;	328,5;	0,0;	0,0
869,037841796875;	291,75;	0,0;	0,0
869,1293334960938;	294,0;	0,0;	0,0
869,220947265625;	321,25;	0,0;	0,0
869,3123168945312;	292,25;	0,0;	0,0
869,4038696289062;	300,25;	0,0;	0,0
869,4951782226562;	289,75;	0,0;	0,0
869,5867309570312;	294,0;	0,0;	0,0
869,6780395507812;	255,0;	0,0;	0,0
869,7693481445312;	289,5;	0,0;	0,0
869,8607177734375;	296,0;	0,0;	0,0
869,9520263671875;	330,25;	0,0;	0,0
870,0433349609375;	375,0;	0,0;	0,0
870,1345825195312;	461,5;	0,0;	0,0
870,225830078125;	529,75;	0,0;	0,0
870,3170776367188;	522,0;	0,0;	0,0
870,4082641601562;	415,0;	0,0;	0,0
870,4994506835938;	330,0;	0,0;	0,0
870,590576171875;	314,75;	0,0;	0,0
870,6817626953125;	293,75;	0,0;	0,0
870,7728271484375;	311,0;	0,0;	0,0
870,8639526367188;	394,5;	0,0;	0,0
870,9550170898438;	446,0;	0,0;	0,0
871,0460815429688;	585,75;	0,0;	0,0
871,1370849609375;	589,25;	0,0;	0,0
871,2280883789062;	431,0;	0,0;	0,0
871,319091796875;	327,25;	0,0;	0,0
871,4100341796875;	329,5;	0,0;	0,0
871,5009155273438;	334,25;	0,0;	0,0
871,5918579101562;	375,5;	0,0;	0,0
871,6828002929688;	444,5;	0,0;	0,0
871,7736206054688;	511,5;	0,0;	0,0
871,864501953125;	483,75;	0,0;	0,0
871,9552612304688;	385,5;	0,0;	0,0
872,0460815429688;	311,25;	0,0;	0,0
872,1369018554688;	303,25;	0,0;	0,0
872,2276000976562;	276,25;	0,0;	0,0
872,318359375;	292,75;	0,0;	0,0
872,4090576171875;	283,25;	0,0;	0,0
872,4996948242188;	264,0;	0,0;	0,0
872,5903930664062;	277,0;	0,0;	0,0
872,680908203125;	292,0;	0,0;	0,0
872,7716064453125;	298,75;	0,0;	0,0
872,8621826171875;	290,5;	0,0;	0,0
872,9527587890625;	292,0;	0,0;	0,0
873,0432739257812;	285,0;	0,0;	0,0
873,1338500976562;	254,0;	0,0;	0,0
873,2243041992188;	248,75;	0,0;	0,0
873,3148193359375;	272,25;	0,0;	0,0
873,4052124023438;	270,0;	0,0;	0,0
873,4957275390625;	261,5;	0,0;	0,0
873,5860595703125;	249,0;	0,0;	0,0
873,6764526367188;	237,75;	0,0;	0,0
873,766845703125;	273,0;	0,0;	0,0
873,857177734375;	250,5;	0,0;	0,0
873,9474487304688;	242,75;	0,0;	0,0
874,0377807617188;	265,0;	0,0;	0,0
874,1279907226562;	264,25;	0,0;	0,0
874,21826171875;	276,0;	0,0;	0,0
874,3084716796875;	260,25;	0,0;	0,0
874,3987426757812;	268,75;	0,0;	0,0
874,4888916015625;	275,5;	0,0;	0,0
874,5790405273438;	269,0;	0,0;	0,0
874,669189453125;	278,5;	0,0;	0,0
874,75927734375;	266,0;	0,0;	0,0
874,849365234375;	275,25;	0,0;	0,0
874,939453125;	259,75;	0,0;	0,0
875,0294799804688;	275,0;	0,0;	0,0
875,1195068359375;	255,25;	0,0;	0,0
875,20947265625;	247,0;	0,0;	0,0
875,2994995117188;	253,5;	0,0;	0,0
875,389404296875;	267,75;	0,0;	0,0
875,4793090820312;	259,5;	0,0;	0,0
875,5692749023438;	289,5;	0,0;	0,0
875,6591186523438;	264,0;	0,0;	0,0
875,7490234375;	253,25;	0,0;	0,0
875,8388061523438;	251,25;	0,0;	0,0
875,9286499023438;	257,75;	0,0;	0,0
876,0184326171875;	246,75;	0,0;	0,0
876,1082153320312;	272,0;	0,0;	0,0
876,197998046875;	261,0;	0,0;	0,0
876,2876586914062;	271,5;	0,0;	0,0
876,3773803710938;	257,25;	0,0;	0,0
876,4671020507812;	269,25;	0,0;	0,0
876,556640625;	256,5;	0,0;	0,0
876,6463012695312;	242,5;	0,0;	0,0
876,7359008789062;	252,25;	0,0;	0,0
876,8255615234375;	247,5;	0,0;	0,0
876,9150390625;	239,5;	0,0;	0,0
877,004638671875;	250,75;	0,0;	0,0
877,0941162109375;	234,75;	0,0;	0,0
877,1836547851562;	247,0;	0,0;	0,0
877,2730712890625;	261,25;	0,0;	0,0
877,3626098632812;	268,25;	0,0;	0,0
877,451904296875;	260,25;	0,0;	0,0
877,5413208007812;	253,75;	0,0;	0,0
877,6306762695312;	247,0;	0,0;	0,0
877,7200927734375;	246,0;	0,0;	0,0
877,8093872070312;	244,0;	0,0;	0,0
877,898681640625;	262,0;	0,0;	0,0
877,988037109375;	261,25;	0,0;	0,0
878,0772705078125;	267,5;	0,0;	0,0
878,16650390625;	255,0;	0,0;	0,0
878,2557373046875;	247,5;	0,0;	0,0
878,3449096679688;	264,5;	0,0;	0,0
878,43408203125;	254,5;	0,0;	0,0
878,5232543945312;	258,75;	0,0;	0,0
878,6123657226562;	266,0;	0,0;	0,0
878,7014770507812;	251,75;	0,0;	0,0
878,7905883789062;	265,75;	0,0;	0,0
878,8795776367188;	261,75;	0,0;	0,0
878,9686279296875;	258,25;	0,0;	0,0
879,0576782226562;	253,5;	0,0;	0,0
879,1466674804688;	266,25;	0,0;	0,0
879,235595703125;	247,25;	0,0;	0,0
879,3245239257812;	250,25;	0,0;	0,0
879,4134521484375;	267,5;	0,0;	0,0
879,5023193359375;	246,25;	0,0;	0,0
879,5911865234375;	251,5;	0,0;	0,0
879,6800537109375;	289,5;	0,0;	0,0
879,7688598632812;	254,0;	0,0;	0,0
879,8577270507812;	240,75;	0,0;	0,0
879,9464721679688;	263,5;	0,0;	0,0
880,0352783203125;	240,25;	0,0;	0,0
880,1239624023438;	270,75;	0,0;	0,0
880,212646484375;	238,0;	0,0;	0,0
880,3013305664062;	272,75;	0,0;	0,0
880,3899536132812;	240,25;	0,0;	0,0
880,4786376953125;	251,5;	0,0;	0,0
880,5671997070312;	276,25;	0,0;	0,0
880,6558837890625;	248,5;	0,0;	0,0
880,7444458007812;	259,75;	0,0;	0,0
880,8330078125;	243,0;	0,0;	0,0
880,9215087890625;	269,25;	0,0;	0,0
881,010009765625;	254,5;	0,0;	0,0
881,0985107421875;	256,25;	0,0;	0,0
881,18701171875;	254,75;	0,0;	0,0
881,2753295898438;	265,0;	0,0;	0,0
881,36376953125;	248,0;	0,0;	0,0
881,4521484375;	273,75;	0,0;	0,0
881,54052734375;	272,0;	0,0;	0,0
881,6288452148438;	244,75;	0,0;	0,0
881,7171630859375;	270,5;	0,0;	0,0
881,8054809570312;	273,5;	0,0;	0,0
881,8937377929688;	267,75;	0,0;	0,0
881,9819946289062;	292,5;	0,0;	0,0
882,0701904296875;	281,75;	0,0;	0,0
882,158447265625;	300,25;	0,0;	0,0
882,24658203125;	293,25;	0,0;	0,0
882,334716796875;	310,25;	0,0;	0,0
882,4228515625;	288,25;	0,0;	0,0
882,510986328125;	258,25;	0,0;	0,0
882,5990600585938;	249,0;	0,0;	0,0
882,6871337890625;	271,5;	0,0;	0,0
882,7752075195312;	241,5;	0,0;	0,0
882,8632202148438;	253,0;	0,0;	0,0
882,951171875;	256,5;	0,0;	0,0
883,0391845703125;	245,5;	0,0;	0,0
883,1271362304688;	232,25;	0,0;	0,0
883,2150268554688;	257,25;	0,0;	0,0
883,3029174804688;	257,5;	0,0;	0,0
883,390869140625;	252,75;	0,0;	0,0
883,4786987304688;	268,75;	0,0;	0,0
883,5665283203125;	259,0;	0,0;	0,0
883,6543579101562;	239,5;	0,0;	0,0
883,7421264648438;	271,25;	0,0;	0,0
883,829833984375;	231,75;	0,0;	0,0
883,9176025390625;	258,75;	0,0;	0,0
884,0053100585938;	252,5;	0,0;	0,0
884,093017578125;	269,25;	0,0;	0,0
884,1806640625;	262,0;	0,0;	0,0
884,268310546875;	256,25;	0,0;	0,0
884,3558959960938;	243,75;	0,0;	0,0
884,4435424804688;	240,75;	0,0;	0,0
884,5310668945312;	244,5;	0,0;	0,0
884,6187133789062;	236,0;	0,0;	0,0
884,7061767578125;	232,0;	0,0;	0,0
884,7937622070312;	252,75;	0,0;	0,0
884,8811645507812;	236,75;	0,0;	0,0
884,9686889648438;	249,75;	0,0;	0,0
885,0560302734375;	266,5;	0,0;	0,0
885,1434936523438;	246,0;	0,0;	0,0
885,2308349609375;	235,75;	0,0;	0,0
885,3182373046875;	231,25;	0,0;	0,0
885,4055786132812;	254,25;	0,0;	0,0
885,4928588867188;	247,25;	0,0;	0,0
885,5801391601562;	238,5;	0,0;	0,0
885,6674194335938;	226,25;	0,0;	0,0
885,7546997070312;	248,0;	0,0;	0,0
885,8419189453125;	247,5;	0,0;	0,0
885,9291381835938;	258,0;	0,0;	0,0
886,016357421875;	237,25;	0,0;	0,0
886,103515625;	235,0;	0,0;	0,0
886,1906127929688;	255,0;	0,0;	0,0
886,2777709960938;	267,25;	0,0;	0,0
886,3648071289062;	261,0;	0,0;	0,0
886,4518432617188;	253,0;	0,0;	0,0
886,5389404296875;	270,0;	0,0;	0,0
886,6259765625;	269,0;	0,0;	0,0
886,7129516601562;	279,5;	0,0;	0,0
886,7999267578125;	255,0;	0,0;	0,0
886,8869018554688;	238,0;	0,0;	0,0
886,9737548828125;	255,5;	0,0;	0,0
887,0606689453125;	257,0;	0,0;	0,0
887,1475830078125;	269,75;	0,0;	0,0
887,2344360351562;	256,0;	0,0;	0,0
887,3212890625;	258,5;	0,0;	0,0
887,4080810546875;	234,25;	0,0;	0,0
887,4948120117188;	260,0;	0,0;	0,0
887,5816650390625;	235,75;	0,0;	0,0
887,6683959960938;	265,5;	0,0;	0,0
887,7550659179688;	244,75;	0,0;	0,0
887,841796875;	244,5;	0,0;	0,0
887,9284057617188;	264,5;	0,0;	0,0
888,0150756835938;	263,25;	0,0;	0,0
888,1016235351562;	253,75;	0,0;	0,0
888,1883544921875;	246,75;	0,0;	0,0
888,2747802734375;	250,75;	0,0;	0,0
888,3614501953125;	239,75;	0,0;	0,0
888,4478759765625;	254,5;	0,0;	0,0
888,534423828125;	259,75;	0,0;	0,0
888,620849609375;	250,25;	0,0;	0,0
888,7073974609375;	253,75;	0,0;	0,0
888,7937622070312;	248,75;	0,0;	0,0
888,8801879882812;	249,75;	0,0;	0,0
888,966552734375;	259,75;	0,0;	0,0
889,0529174804688;	246,0;	0,0;	0,0
889,1392822265625;	260,25;	0,0;	0,0
889,2255859375;	247,25;	0,0;	0,0
889,3118896484375;	243,25;	0,0;	0,0
889,398193359375;	265,75;	0,0;	0,0
889,484375;	269,5;	0,0;	0,0
889,5706787109375;	279,0;	0,0;	0,0
889,6568603515625;	267,0;	0,0;	0,0
889,7430419921875;	261,5;	0,0;	0,0
889,8291625976562;	243,75;	0,0;	0,0
889,9153442382812;	251,25;	0,0;	0,0
890,0014038085938;	250,5;	0,0;	0,0
890,0874633789062;	243,5;	0,0;	0,0
890,173583984375;	251,25;	0,0;	0,0
890,2595825195312;	251,75;	0,0;	0,0
890,3456420898438;	269,5;	0,0;	0,0
890,4315795898438;	241,75;	0,0;	0,0
890,5175170898438;	275,25;	0,0;	0,0
890,6034545898438;	253,5;	0,0;	0,0
890,689453125;	261,75;	0,0;	0,0
890,7753295898438;	254,25;	0,0;	0,0
890,8611450195312;	268,75;	0,0;	0,0
890,947021484375;	255,0;	0,0;	0,0
891,0328369140625;	260,25;	0,0;	0,0
891,1187133789062;	259,25;	0,0;	0,0
891,2044067382812;	234,5;	0,0;	0,0
891,2902221679688;	256,25;	0,0;	0,0
891,3759155273438;	246,0;	0,0;	0,0
891,4616088867188;	238,5;	0,0;	0,0
891,54736328125;	250,0;	0,0;	0,0
891,6329345703125;	264,75;	0,0;	0,0
891,7186279296875;	253,0;	0,0;	0,0
891,80419921875;	263,5;	0,0;	0,0
891,8898315429688;	222,75;	0,0;	0,0
891,975341796875;	253,5;	0,0;	0,0
892,0609130859375;	253,75;	0,0;	0,0
892,1464233398438;	248,5;	0,0;	0,0
892,23193359375;	264,75;	0,0;	0,0
892,3173828125;	264,25;	0,0;	0,0
892,4028930664062;	243,25;	0,0;	0,0
892,4882202148438;	242,75;	0,0;	0,0
892,5736083984375;	278,75;	0,0;	0,0
892,6589965820312;	236,75;	0,0;	0,0
892,744384765625;	237,5;	0,0;	0,0
892,8297119140625;	241,0;	0,0;	0,0
892,9150390625;	262,75;	0,0;	0,0
893,0003051757812;	265,25;	0,0;	0,0
893,0855712890625;	266,25;	0,0;	0,0
893,1708374023438;	247,75;	0,0;	0,0
893,2559814453125;	263,5;	0,0;	0,0
893,3412475585938;	269,75;	0,0;	0,0
893,4263916015625;	247,5;	0,0;	0,0
893,5115356445312;	262,0;	0,0;	0,0
893,5966186523438;	256,25;	0,0;	0,0
893,6817016601562;	272,25;	0,0;	0,0
893,7667846679688;	253,75;	0,0;	0,0
893,8518676757812;	272,25;	0,0;	0,0
893,9368896484375;	241,5;	0,0;	0,0
894,0218505859375;	266,5;	0,0;	0,0
894,1068725585938;	266,5;	0,0;	0,0
894,1918334960938;	272,25;	0,0;	0,0
894,2767944335938;	267,0;	0,0;	0,0
894,3616333007812;	280,75;	0,0;	0,0
894,446533203125;	249,25;	0,0;	0,0
894,5313720703125;	244,25;	0,0;	0,0
894,6162109375;	240,5;	0,0;	0,0
894,7010498046875;	249,0;	0,0;	0,0
894,7858276367188;	255,75;	0,0;	0,0
894,87060546875;	246,0;	0,0;	0,0
894,9553833007812;	246,5;	0,0;	0,0
895,0401000976562;	242,75;	0,0;	0,0
895,1248168945312;	254,0;	0,0;	0,0
895,20947265625;	247,25;	0,0;	0,0
895,2940063476562;	253,5;	0,0;	0,0
895,3787231445312;	253,25;	0,0;	0,0
895,4632568359375;	255,25;	0,0;	0,0
895,5479125976562;	252,0;	0,0;	0,0
895,6324462890625;	242,0;	0,0;	0,0
895,7169799804688;	256,75;	0,0;	0,0
895,8013916015625;	280,0;	0,0;	0,0
895,885986328125;	237,5;	0,0;	0,0
895,9703369140625;	253,0;	0,0;	0,0
896,0548706054688;	243,0;	0,0;	0,0
896,1392211914062;	261,25;	0,0;	0,0
896,2236328125;	254,5;	0,0;	0,0
896,3079833984375;	238,75;	0,0;	0,0
896,392333984375;	235,5;	0,0;	0,0
896,4766235351562;	267,5;	0,0;	0,0
896,5609130859375;	252,5;	0,0;	0,0
896,6452026367188;	272,25;	0,0;	0,0
896,7294921875;	282,25;	0,0;	0,0
896,8136596679688;	232,25;	0,0;	0,0
896,8978881835938;	232,75;	0,0;	0,0
896,9819946289062;	241,75;	0,0;	0,0
897,0662231445312;	244,0;	0,0;	0,0
897,1503295898438;	256,5;	0,0;	0,0
897,234375;	248,5;	0,0;	0,0
897,3184814453125;	268,75;	0,0;	0,0
897,4025268554688;	255,25;	0,0;	0,0
897,486572265625;	226,5;	0,0;	0,0
897,570556640625;	248,25;	0,0;	0,0
897,6546020507812;	243,75;	0,0;	0,0
897,738525390625;	252,25;	0,0;	0,0
897,8224487304688;	246,0;	0,0;	0,0
897,9063720703125;	251,75;	0,0;	0,0
897,9902954101562;	255,0;	0,0;	0,0
898,0741577148438;	240,25;	0,0;	0,0
898,157958984375;	234,0;	0,0;	0,0
898,2417602539062;	237,0;	0,0;	0,0
898,3255615234375;	243,75;	0,0;	0,0
898,4093627929688;	226,5;	0,0;	0,0
898,4931030273438;	246,0;	0,0;	0,0
898,5768432617188;	240,0;	0,0;	0,0
898,6605834960938;	263,0;	0,0;	0,0
898,7442016601562;	237,25;	0,0;	0,0
898,827880859375;	247,25;	0,0;	0,0
898,9114379882812;	239,5;	0,0;	0,0
898,9950561523438;	261,5;	0,0;	0,0
899,07861328125;	239,5;	0,0;	0,0
899,1622314453125;	254,0;	0,0;	0,0
899,2456665039062;	261,0;	0,0;	0,0
899,3292846679688;	254,75;	0,0;	0,0
899,4127197265625;	255,25;	0,0;	0,0
899,4962158203125;	247,25;	0,0;	0,0
899,57958984375;	243,0;	0,0;	0,0
899,6630859375;	249,5;	0,0;	0,0
899,7463989257812;	270,75;	0,0;	0,0
899,8297729492188;	282,5;	0,0;	0,0
899,9130859375;	280,5;	0,0;	0,0
899,9963989257812;	271,0;	0,0;	0,0
900,0797119140625;	240,75;	0,0;	0,0
900,1629638671875;	245,25;	0,0;	0,0
900,2462158203125;	245,25;	0,0;	0,0
900,3294677734375;	239,75;	0,0;	0,0
900,4127197265625;	241,0;	0,0;	0,0
900,495849609375;	236,25;	0,0;	0,0
900,5790405273438;	238,5;	0,0;	0,0
900,662109375;	254,5;	0,0;	0,0
900,7451782226562;	274,25;	0,0;	0,0
900,8283081054688;	266,0;	0,0;	0,0
900,911376953125;	249,0;	0,0;	0,0
900,9944458007812;	260,25;	0,0;	0,0
901,0774536132812;	234,25;	0,0;	0,0
901,1603393554688;	272,5;	0,0;	0,0
901,2433471679688;	249,5;	0,0;	0,0
901,3262939453125;	242,5;	0,0;	0,0
901,4091796875;	261,0;	0,0;	0,0
901,4921264648438;	269,0;	0,0;	0,0
901,574951171875;	261,25;	0,0;	0,0
901,6578369140625;	248,25;	0,0;	0,0
901,7406616210938;	247,75;	0,0;	0,0
901,8234252929688;	274,0;	0,0;	0,0
901,9061889648438;	273,5;	0,0;	0,0
901,9889526367188;	252,0;	0,0;	0,0
902,0715942382812;	233,5;	0,0;	0,0
902,1543579101562;	268,75;	0,0;	0,0
902,237060546875;	263,5;	0,0;	0,0
902,3196411132812;	263,75;	0,0;	0,0
902,40234375;	259,5;	0,0;	0,0
902,48486328125;	260,25;	0,0;	0,0
902,5674438476562;	249,75;	0,0;	0,0
902,6499633789062;	250,25;	0,0;	0,0
902,7325439453125;	283,25;	0,0;	0,0
902,8150024414062;	265,75;	0,0;	0,0
902,8975219726562;	272,5;	0,0;	0,0
902,97998046875;	291,25;	0,0;	0,0
903,0624389648438;	268,0;	0,0;	0,0
903,144775390625;	267,0;	0,0;	0,0
903,227294921875;	261,25;	0,0;	0,0
903,3095703125;	268,25;	0,0;	0,0
903,391845703125;	264,0;	0,0;	0,0
903,4742431640625;	252,5;	0,0;	0,0
903,5565185546875;	255,0;	0,0;	0,0
903,6387939453125;	245,5;	0,0;	0,0
903,7210083007812;	250,0;	0,0;	0,0
903,80322265625;	259,0;	0,0;	0,0
903,8854370117188;	268,25;	0,0;	0,0
903,9675903320312;	275,5;	0,0;	0,0
904,0497436523438;	292,25;	0,0;	0,0
904,1318969726562;	296,5;	0,0;	0,0
904,2139892578125;	313,5;	0,0;	0,0
904,2960205078125;	318,0;	0,0;	0,0
904,3780517578125;	362,75;	0,0;	0,0
904,4600830078125;	423,0;	0,0;	0,0
904,5421142578125;	414,75;	0,0;	0,0
904,6240844726562;	395,75;	0,0;	0,0
904,7060546875;	343,0;	0,0;	0,0
904,7879638671875;	352,75;	0,0;	0,0
904,869873046875;	389,0;	0,0;	0,0
904,9517211914062;	379,25;	0,0;	0,0
905,0336303710938;	344,75;	0,0;	0,0
905,115478515625;	289,5;	0,0;	0,0
905,197265625;	267,75;	0,0;	0,0
905,279052734375;	279,0;	0,0;	0,0
905,36083984375;	250,5;	0,0;	0,0
905,4425659179688;	245,25;	0,0;	0,0
905,5242919921875;	273,25;	0,0;	0,0
905,6060180664062;	268,75;	0,0;	0,0
905,6876220703125;	294,0;	0,0;	0,0
905,769287109375;	290,25;	0,0;	0,0
905,8508911132812;	285,5;	0,0;	0,0
905,9324951171875;	328,0;	0,0;	0,0
906,0140380859375;	329,75;	0,0;	0,0
906,0956420898438;	322,5;	0,0;	0,0
906,1771240234375;	316,5;	0,0;	0,0
906,2586669921875;	311,25;	0,0;	0,0
906,3400268554688;	323,0;	0,0;	0,0
906,4215698242188;	289,75;	0,0;	0,0
906,5029296875;	254,75;	0,0;	0,0
906,5844116210938;	284,75;	0,0;	0,0
906,6657104492188;	268,0;	0,0;	0,0
906,7471313476562;	282,5;	0,0;	0,0
906,828369140625;	250,75;	0,0;	0,0
906,90966796875;	262,25;	0,0;	0,0
906,990966796875;	262,25;	0,0;	0,0
907,0722045898438;	261,0;	0,0;	0,0
907,1534423828125;	264,75;	0,0;	0,0
907,2346801757812;	249,25;	0,0;	0,0
907,3158569335938;	239,5;	0,0;	0,0
907,3970336914062;	253,5;	0,0;	0,0
907,4781494140625;	277,5;	0,0;	0,0
907,559326171875;	248,75;	0,0;	0,0
907,640380859375;	270,5;	0,0;	0,0
907,721435546875;	272,75;	0,0;	0,0
907,802490234375;	246,25;	0,0;	0,0
907,8834838867188;	233,75;	0,0;	0,0
907,9644775390625;	253,25;	0,0;	0,0
908,0454711914062;	243,25;	0,0;	0,0
908,1264038085938;	236,25;	0,0;	0,0
908,2073364257812;	228,5;	0,0;	0,0
908,2882080078125;	255,25;	0,0;	0,0
908,3690795898438;	251,0;	0,0;	0,0
908,449951171875;	289,0;	0,0;	0,0
908,53076171875;	250,5;	0,0;	0,0
908,6115112304688;	252,75;	0,0;	0,0
908,6923217773438;	249,5;	0,0;	0,0
908,7730712890625;	259,0;	0,0;	0,0
908,8538208007812;	268,0;	0,0;	0,0
908,9345092773438;	233,25;	0,0;	0,0
909,0151977539062;	251,75;	0,0;	0,0
909,0958251953125;	256,25;	0,0;	0,0
909,1764526367188;	265,5;	0,0;	0,0
909,257080078125;	243,0;	0,0;	0,0
909,337646484375;	256,5;	0,0;	0,0
909,418212890625;	276,75;	0,0;	0,0
909,4987182617188;	257,5;	0,0;	0,0
909,5792236328125;	251,25;	0,0;	0,0
909,65966796875;	262,5;	0,0;	0,0
909,7401733398438;	244,25;	0,0;	0,0
909,820556640625;	257,75;	0,0;	0,0
909,9010009765625;	247,25;	0,0;	0,0
909,9813842773438;	233,0;	0,0;	0,0
910,061767578125;	258,75;	0,0;	0,0
910,1420288085938;	243,5;	0,0;	0,0
910,222412109375;	249,25;	0,0;	0,0
910,3026733398438;	234,0;	0,0;	0,0
910,3829345703125;	256,0;	0,0;	0,0
910,4631958007812;	240,25;	0,0;	0,0
910,5433959960938;	235,25;	0,0;	0,0
910,6235961914062;	234,0;	0,0;	0,0
910,7037353515625;	241,0;	0,0;	0,0
910,783935546875;	233,0;	0,0;	0,0
910,864013671875;	249,5;	0,0;	0,0
910,944091796875;	239,0;	0,0;	0,0
911,024169921875;	237,0;	0,0;	0,0
911,104248046875;	254,0;	0,0;	0,0
911,1842651367188;	263,5;	0,0;	0,0
911,2642822265625;	259,25;	0,0;	0,0
911,3441772460938;	268,0;	0,0;	0,0
911,4241943359375;	232,5;	0,0;	0,0
911,5040893554688;	256,0;	0,0;	0,0
911,5840454101562;	250,25;	0,0;	0,0
911,6638793945312;	243,0;	0,0;	0,0
911,7437133789062;	236,5;	0,0;	0,0
911,8235473632812;	254,75;	0,0;	0,0
911,9033813476562;	249,0;	0,0;	0,0
911,983154296875;	266,5;	0,0;	0,0
912,0629272460938;	252,0;	0,0;	0,0
912,1426391601562;	234,25;	0,0;	0,0
912,2223510742188;	234,75;	0,0;	0,0
912,302001953125;	243,5;	0,0;	0,0
912,3817138671875;	248,75;	0,0;	0,0
912,4613037109375;	247,5;	0,0;	0,0
912,5409545898438;	255,5;	0,0;	0,0
912,6205444335938;	227,25;	0,0;	0,0
912,7000732421875;	242,75;	0,0;	0,0
912,7796630859375;	233,75;	0,0;	0,0
912,8590698242188;	243,25;	0,0;	0,0
912,9385986328125;	246,25;	0,0;	0,0
913,0181274414062;	267,5;	0,0;	0,0
913,0974731445312;	238,75;	0,0;	0,0
913,1769409179688;	255,75;	0,0;	0,0
913,2562866210938;	246,5;	0,0;	0,0
913,335693359375;	257,5;	0,0;	0,0
913,4149780273438;	253,25;	0,0;	0,0
913,494384765625;	243,25;	0,0;	0,0
913,5735473632812;	239,25;	0,0;	0,0
913,6528930664062;	249,75;	0,0;	0,0
913,7321166992188;	229,75;	0,0;	0,0
913,811279296875;	247,0;	0,0;	0,0
913,8905639648438;	233,5;	0,0;	0,0
913,9696655273438;	240,5;	0,0;	0,0
914,048828125;	231,25;	0,0;	0,0
914,1279296875;	259,25;	0,0;	0,0
914,20703125;	240,5;	0,0;	0,0
914,2861328125;	242,75;	0,0;	0,0
914,3651733398438;	225,25;	0,0;	0,0
914,4441528320312;	250,5;	0,0;	0,0
914,523193359375;	261,5;	0,0;	0,0
914,6021728515625;	240,75;	0,0;	0,0
914,68115234375;	238,25;	0,0;	0,0
914,7600708007812;	233,5;	0,0;	0,0
914,8389282226562;	249,25;	0,0;	0,0
914,9178466796875;	241,25;	0,0;	0,0
914,9967041015625;	235,75;	0,0;	0,0
915,0755004882812;	242,5;	0,0;	0,0
915,1543579101562;	247,25;	0,0;	0,0
915,2330932617188;	264,0;	0,0;	0,0
915,3118896484375;	241,0;	0,0;	0,0
915,3905639648438;	231,25;	0,0;	0,0
915,4692993164062;	243,25;	0,0;	0,0
915,5479736328125;	259,5;	0,0;	0,0
915,6266479492188;	241,5;	0,0;	0,0
915,7052612304688;	242,5;	0,0;	0,0
915,7838745117188;	234,5;	0,0;	0,0
915,8624877929688;	237,0;	0,0;	0,0
915,9409790039062;	241,75;	0,0;	0,0
916,01953125;	253,25;	0,0;	0,0
916,0980834960938;	252,75;	0,0;	0,0
916,1765747070312;	236,75;	0,0;	0,0
916,2550048828125;	240,5;	0,0;	0,0
916,3334350585938;	239,25;	0,0;	0,0
916,411865234375;	249,0;	0,0;	0,0
916,4901733398438;	251,75;	0,0;	0,0
916,568603515625;	230,25;	0,0;	0,0
916,6469116210938;	259,75;	0,0;	0,0
916,7252807617188;	249,5;	0,0;	0,0
916,803466796875;	244,0;	0,0;	0,0
916,8818359375;	236,75;	0,0;	0,0
916,9600219726562;	232,0;	0,0;	0,0
917,0382690429688;	233,25;	0,0;	0,0
917,1163940429688;	244,75;	0,0;	0,0
917,1946411132812;	279,5;	0,0;	0,0
917,272705078125;	259,25;	0,0;	0,0
917,350830078125;	245,0;	0,0;	0,0
917,428955078125;	237,0;	0,0;	0,0
917,507080078125;	271,75;	0,0;	0,0
917,5850830078125;	243,25;	0,0;	0,0
917,6630859375;	225,5;	0,0;	0,0
917,7410888671875;	230,0;	0,0;	0,0
917,819091796875;	235,0;	0,0;	0,0
917,8970336914062;	237,75;	0,0;	0,0
917,9749145507812;	246,0;	0,0;	0,0
918,0528564453125;	235,25;	0,0;	0,0
918,1307373046875;	242,0;	0,0;	0,0
918,2085571289062;	251,5;	0,0;	0,0
918,286376953125;	241,75;	0,0;	0,0
918,3641357421875;	240,0;	0,0;	0,0
918,4419555664062;	227,5;	0,0;	0,0
918,5197143554688;	219,5;	0,0;	0,0
918,597412109375;	229,75;	0,0;	0,0
918,6751098632812;	240,25;	0,0;	0,0
918,7528076171875;	234,5;	0,0;	0,0
918,8304443359375;	249,75;	0,0;	0,0
918,9080810546875;	252,25;	0,0;	0,0
918,9856567382812;	249,75;	0,0;	0,0
919,0632934570312;	251,0;	0,0;	0,0
919,1408081054688;	239,25;	0,0;	0,0
919,2183227539062;	247,25;	0,0;	0,0
919,2958374023438;	260,5;	0,0;	0,0
919,373291015625;	237,25;	0,0;	0,0
919,4507446289062;	255,0;	0,0;	0,0
919,5281982421875;	244,5;	0,0;	0,0
919,6056518554688;	230,5;	0,0;	0,0
919,6830444335938;	234,75;	0,0;	0,0
919,7603759765625;	234,5;	0,0;	0,0
919,837646484375;	231,0;	0,0;	0,0
919,9149780273438;	265,25;	0,0;	0,0
919,9921875;	227,25;	0,0;	0,0
920,0695190429688;	235,75;	0,0;	0,0
920,1466674804688;	261,75;	0,0;	0,0
920,2239990234375;	220,5;	0,0;	0,0
920,3010864257812;	262,0;	0,0;	0,0
920,3783569335938;	249,0;	0,0;	0,0
920,4553833007812;	231,75;	0,0;	0,0
920,5325927734375;	260,75;	0,0;	0,0
920,609619140625;	251,75;	0,0;	0,0
920,6866455078125;	245,5;	0,0;	0,0
920,763671875;	250,0;	0,0;	0,0
920,8406982421875;	238,75;	0,0;	0,0
920,9176635742188;	256,25;	0,0;	0,0
920,99462890625;	237,25;	0,0;	0,0
921,0715942382812;	245,75;	0,0;	0,0
921,1485595703125;	235,5;	0,0;	0,0
921,2254028320312;	246,75;	0,0;	0,0
921,30224609375;	236,0;	0,0;	0,0
921,3790893554688;	236,0;	0,0;	0,0
921,4559326171875;	252,75;	0,0;	0,0
921,53271484375;	234,25;	0,0;	0,0
921,6094970703125;	242,25;	0,0;	0,0
921,6862182617188;	246,0;	0,0;	0,0
921,7628784179688;	247,0;	0,0;	0,0
921,839599609375;	243,25;	0,0;	0,0
921,9163208007812;	237,0;	0,0;	0,0
921,992919921875;	234,0;	0,0;	0,0
922,0695190429688;	225,0;	0,0;	0,0
922,1461181640625;	236,5;	0,0;	0,0
922,2227172851562;	227,0;	0,0;	0,0
922,2992553710938;	234,0;	0,0;	0,0
922,375732421875;	227,5;	0,0;	0,0
922,4522094726562;	237,0;	0,0;	0,0
922,5286865234375;	228,75;	0,0;	0,0
922,6051025390625;	237,0;	0,0;	0,0
922,6815795898438;	246,5;	0,0;	0,0
922,7579345703125;	242,75;	0,0;	0,0
922,8342895507812;	229,0;	0,0;	0,0
922,9107055664062;	240,25;	0,0;	0,0
922,9869995117188;	236,0;	0,0;	0,0
923,063232421875;	253,25;	0,0;	0,0
923,1394653320312;	236,75;	0,0;	0,0
923,2158203125;	254,5;	0,0;	0,0
923,2919311523438;	256,5;	0,0;	0,0
923,3682250976562;	241,0;	0,0;	0,0
923,4442749023438;	235,5;	0,0;	0,0
923,5205688476562;	256,75;	0,0;	0,0
923,5966186523438;	266,75;	0,0;	0,0
923,6727294921875;	219,75;	0,0;	0,0
923,748779296875;	247,5;	0,0;	0,0
923,8248291015625;	225,25;	0,0;	0,0
923,9008178710938;	258,75;	0,0;	0,0
923,976806640625;	235,75;	0,0;	0,0
924,0527954101562;	239,75;	0,0;	0,0
924,128662109375;	250,75;	0,0;	0,0
924,2046508789062;	258,0;	0,0;	0,0
924,2805786132812;	226,25;	0,0;	0,0
924,3564453125;	260,25;	0,0;	0,0
924,4322509765625;	243,75;	0,0;	0,0
924,5081176757812;	253,75;	0,0;	0,0
924,5838623046875;	231,0;	0,0;	0,0
924,65966796875;	245,0;	0,0;	0,0
924,7353515625;	237,5;	0,0;	0,0
924,8111572265625;	260,25;	0,0;	0,0
924,8868408203125;	261,25;	0,0;	0,0
924,9624633789062;	239,0;	0,0;	0,0
925,0381469726562;	255,0;	0,0;	0,0
925,11376953125;	251,75;	0,0;	0,0
925,1893920898438;	243,5;	0,0;	0,0
925,2649536132812;	259,0;	0,0;	0,0
925,3404541015625;	250,5;	0,0;	0,0
925,416015625;	249,5;	0,0;	0,0
925,4915161132812;	243,25;	0,0;	0,0
925,5669555664062;	271,75;	0,0;	0,0
925,6423950195312;	268,5;	0,0;	0,0
925,7178955078125;	281,25;	0,0;	0,0
925,793212890625;	292,75;	0,0;	0,0
925,8685913085938;	302,0;	0,0;	0,0
925,9439697265625;	324,25;	0,0;	0,0
926,0193481445312;	342,25;	0,0;	0,0
926,0946044921875;	339,0;	0,0;	0,0
926,1698608398438;	357,25;	0,0;	0,0
926,2451171875;	380,5;	0,0;	0,0
926,3203735351562;	366,0;	0,0;	0,0
926,3955078125;	369,5;	0,0;	0,0
926,470703125;	389,5;	0,0;	0,0
926,5458374023438;	372,5;	0,0;	0,0
926,6209716796875;	0,0;	0,0;	0,0
