0.0	0.0
Integration time [ms]:	1.05
Averaging Nr. [scans]:1
Smoothing Nr. [pixels]:0
Data measured with spectrometer [name]:b'1703276U8'
Wave	;Sample	;Dark	;Reference	;Scope	
[nm]	;[counts]	;[counts]	;[counts]	
 
400,41888427734375;	266,25;	0,0;	0,0
400,4754333496094;	274,0;	0,0;	0,0
400,5319519042969;	529,75;	0,0;	0,0
400,5885009765625;	831,0;	0,0;	0,0
400,6449890136719;	376,75;	0,0;	0,0
400,7015075683594;	298,0;	0,0;	0,0
400,75799560546875;	274,0;	0,0;	0,0
400,8144836425781;	251,75;	0,0;	0,0
400,8709716796875;	235,0;	0,0;	0,0
400,92742919921875;	269,25;	0,0;	0,0
400,98388671875;	306,0;	0,0;	0,0
401,04034423828125;	302,0;	0,0;	0,0
401,09674072265625;	273,75;	0,0;	0,0
401,1531677246094;	245,5;	0,0;	0,0
401,2095947265625;	243,5;	0,0;	0,0
401,2659912109375;	226,5;	0,0;	0,0
401,3223876953125;	251,5;	0,0;	0,0
401,3787841796875;	252,75;	0,0;	0,0
401,4351806640625;	274,75;	0,0;	0,0
401,4915466308594;	338,25;	0,0;	0,0
401,54791259765625;	304,25;	0,0;	0,0
401,604248046875;	224,25;	0,0;	0,0
401,66058349609375;	267,25;	0,0;	0,0
401,7169189453125;	244,75;	0,0;	0,0
401,77325439453125;	305,5;	0,0;	0,0
401,8295593261719;	284,5;	0,0;	0,0
401,8858642578125;	272,0;	0,0;	0,0
401,942138671875;	223,0;	0,0;	0,0
401,9984436035156;	233,75;	0,0;	0,0
402,0547180175781;	237,75;	0,0;	0,0
402,1109619140625;	248,75;	0,0;	0,0
402,1672058105469;	277,5;	0,0;	0,0
402,22344970703125;	357,0;	0,0;	0,0
402,2796936035156;	311,75;	0,0;	0,0
402,3359375;	252,25;	0,0;	0,0
402,39215087890625;	250,25;	0,0;	0,0
402,44830322265625;	245,25;	0,0;	0,0
402,5045166015625;	289,5;	0,0;	0,0
402,5606994628906;	285,75;	0,0;	0,0
402,6168518066406;	247,5;	0,0;	0,0
402,6730041503906;	250,5;	0,0;	0,0
402,7291564941406;	250,0;	0,0;	0,0
402,7853088378906;	236,25;	0,0;	0,0
402,8414611816406;	261,25;	0,0;	0,0
402,8975830078125;	260,75;	0,0;	0,0
402,9537048339844;	272,25;	0,0;	0,0
403,0097961425781;	309,0;	0,0;	0,0
403,0658874511719;	482,0;	0,0;	0,0
403,1219787597656;	840,0;	0,0;	0,0
403,1780700683594;	488,25;	0,0;	0,0
403,234130859375;	336,5;	0,0;	0,0
403,2901916503906;	418,0;	0,0;	0,0
403,34625244140625;	664,0;	0,0;	0,0
403,40228271484375;	510,5;	0,0;	0,0
403,45831298828125;	383,0;	0,0;	0,0
403,51434326171875;	530,75;	0,0;	0,0
403,5703430175781;	296,0;	0,0;	0,0
403,6263122558594;	293,5;	0,0;	0,0
403,68231201171875;	255,25;	0,0;	0,0
403,7383117675781;	247,0;	0,0;	0,0
403,79425048828125;	248,25;	0,0;	0,0
403,8501892089844;	260,0;	0,0;	0,0
403,9061584472656;	271,75;	0,0;	0,0
403,96209716796875;	260,0;	0,0;	0,0
404,0180358886719;	279,0;	0,0;	0,0
404,0739440917969;	284,0;	0,0;	0,0
404,1298828125;	296,0;	0,0;	0,0
404,1857604980469;	350,75;	0,0;	0,0
404,24163818359375;	285,5;	0,0;	0,0
404,2975158691406;	278,0;	0,0;	0,0
404,3533935546875;	282,5;	0,0;	0,0
404,4092712402344;	410,5;	0,0;	0,0
404,4651184082031;	606,25;	0,0;	0,0
404,5209655761719;	770,75;	0,0;	0,0
404,5768127441406;	1801,5;	0,0;	0,0
404,6325988769531;	4156,75;	0,0;	0,0
404,68841552734375;	1715,75;	0,0;	0,0
404,7442321777344;	440,0;	0,0;	0,0
404,8000183105469;	387,25;	0,0;	0,0
404,8558349609375;	291,25;	0,0;	0,0
404,9115905761719;	296,25;	0,0;	0,0
404,96734619140625;	276,75;	0,0;	0,0
405,0231018066406;	267,0;	0,0;	0,0
405,078857421875;	256,5;	0,0;	0,0
405,1345520019531;	269,0;	0,0;	0,0
405,1902770996094;	270,5;	0,0;	0,0
405,2460021972656;	275,75;	0,0;	0,0
405,30169677734375;	285,0;	0,0;	0,0
405,3573913574219;	270,75;	0,0;	0,0
405,4130859375;	264,0;	0,0;	0,0
405,4687805175781;	275,25;	0,0;	0,0
405,5244445800781;	294,75;	0,0;	0,0
405,580078125;	335,5;	0,0;	0,0
405,6357116699219;	297,75;	0,0;	0,0
405,6913757324219;	282,5;	0,0;	0,0
405,74700927734375;	280,5;	0,0;	0,0
405,8025817871094;	302,75;	0,0;	0,0
405,85821533203125;	358,25;	0,0;	0,0
405,913818359375;	284,75;	0,0;	0,0
405,96942138671875;	288,25;	0,0;	0,0
406,02496337890625;	268,25;	0,0;	0,0
406,0805358886719;	274,25;	0,0;	0,0
406,1361083984375;	289,5;	0,0;	0,0
406,191650390625;	308,25;	0,0;	0,0
406,2471618652344;	400,5;	0,0;	0,0
406,3027038574219;	695,0;	0,0;	0,0
406,3582458496094;	1609,0;	0,0;	0,0
406,4137268066406;	3518,25;	0,0;	0,0
406,4692077636719;	1275,5;	0,0;	0,0
406,5246887207031;	333,75;	0,0;	0,0
406,5802001953125;	286,5;	0,0;	0,0
406,6356506347656;	291,0;	0,0;	0,0
406,69110107421875;	305,5;	0,0;	0,0
406,74658203125;	405,75;	0,0;	0,0
406,8019714355469;	430,25;	0,0;	0,0
406,857421875;	392,25;	0,0;	0,0
406,912841796875;	305,5;	0,0;	0,0
406,96826171875;	272,75;	0,0;	0,0
407,0236511230469;	316,75;	0,0;	0,0
407,0790710449219;	375,0;	0,0;	0,0
407,1344299316406;	783,5;	0,0;	0,0
407,1897888183594;	1995,25;	0,0;	0,0
407,24517822265625;	3051,75;	0,0;	0,0
407,3005065917969;	643,25;	0,0;	0,0
407,3558654785156;	332,0;	0,0;	0,0
407,4111633300781;	347,75;	0,0;	0,0
407,46649169921875;	322,0;	0,0;	0,0
407,5218200683594;	343,25;	0,0;	0,0
407,5771179199219;	319,5;	0,0;	0,0
407,6324157714844;	322,0;	0,0;	0,0
407,68768310546875;	415,25;	0,0;	0,0
407,7429504394531;	438,0;	0,0;	0,0
407,7981872558594;	366,0;	0,0;	0,0
407,85345458984375;	343,25;	0,0;	0,0
407,9086608886719;	300,5;	0,0;	0,0
407,96392822265625;	318,5;	0,0;	0,0
408,0191650390625;	308,5;	0,0;	0,0
408,0743408203125;	294,0;	0,0;	0,0
408,12957763671875;	253,5;	0,0;	0,0
408,18475341796875;	256,25;	0,0;	0,0
408,23992919921875;	273,25;	0,0;	0,0
408,29510498046875;	255,25;	0,0;	0,0
408,35028076171875;	273,5;	0,0;	0,0
408,4054260253906;	324,25;	0,0;	0,0
408,4605712890625;	353,0;	0,0;	0,0
408,51568603515625;	402,0;	0,0;	0,0
408,57080078125;	423,5;	0,0;	0,0
408,6259460449219;	315,75;	0,0;	0,0
408,6810302734375;	276,5;	0,0;	0,0
408,73614501953125;	259,5;	0,0;	0,0
408,79119873046875;	272,5;	0,0;	0,0
408,8462829589844;	256,75;	0,0;	0,0
408,9013366699219;	255,75;	0,0;	0,0
408,9563903808594;	267,25;	0,0;	0,0
409,0114440917969;	272,75;	0,0;	0,0
409,0664367675781;	272,75;	0,0;	0,0
409,1214904785156;	260,25;	0,0;	0,0
409,1764831542969;	264,25;	0,0;	0,0
409,2314758300781;	265,0;	0,0;	0,0
409,2864990234375;	260,25;	0,0;	0,0
409,3414611816406;	273,75;	0,0;	0,0
409,39642333984375;	239,0;	0,0;	0,0
409,451416015625;	274,5;	0,0;	0,0
409,50634765625;	279,0;	0,0;	0,0
409,5613098144531;	286,0;	0,0;	0,0
409,6162414550781;	309,75;	0,0;	0,0
409,6711730957031;	334,5;	0,0;	0,0
409,72607421875;	307,25;	0,0;	0,0
409,781005859375;	301,0;	0,0;	0,0
409,83587646484375;	331,0;	0,0;	0,0
409,8907470703125;	358,25;	0,0;	0,0
409,94561767578125;	278,75;	0,0;	0,0
410,0005187988281;	281,5;	0,0;	0,0
410,05535888671875;	280,5;	0,0;	0,0
410,1101989746094;	280,5;	0,0;	0,0
410,1650390625;	300,0;	0,0;	0,0
410,2198486328125;	289,75;	0,0;	0,0
410,2746887207031;	265,75;	0,0;	0,0
410,3294677734375;	256,75;	0,0;	0,0
410,3842468261719;	248,25;	0,0;	0,0
410,43902587890625;	288,0;	0,0;	0,0
410,4938049316406;	286,75;	0,0;	0,0
410,548583984375;	251,25;	0,0;	0,0
410,60333251953125;	283,75;	0,0;	0,0
410,6580810546875;	269,0;	0,0;	0,0
410,7127990722656;	310,0;	0,0;	0,0
410,7675476074219;	376,75;	0,0;	0,0
410,8222351074219;	454,5;	0,0;	0,0
410,876953125;	295,25;	0,0;	0,0
410,931640625;	305,5;	0,0;	0,0
410,986328125;	316,0;	0,0;	0,0
411,041015625;	382,25;	0,0;	0,0
411,095703125;	292,75;	0,0;	0,0
411,15032958984375;	267,0;	0,0;	0,0
411,2049865722656;	297,25;	0,0;	0,0
411,2596130371094;	287,0;	0,0;	0,0
411,3142395019531;	307,5;	0,0;	0,0
411,3688659667969;	303,25;	0,0;	0,0
411,4234619140625;	288,5;	0,0;	0,0
411,4780578613281;	304,5;	0,0;	0,0
411,53265380859375;	324,0;	0,0;	0,0
411,58721923828125;	276,25;	0,0;	0,0
411,64178466796875;	268,0;	0,0;	0,0
411,6963195800781;	276,75;	0,0;	0,0
411,7508544921875;	248,75;	0,0;	0,0
411,805419921875;	334,0;	0,0;	0,0
411,8598937988281;	470,0;	0,0;	0,0
411,9144287109375;	828,5;	0,0;	0,0
411,96893310546875;	398,75;	0,0;	0,0
412,0234375;	270,25;	0,0;	0,0
412,0779113769531;	333,5;	0,0;	0,0
412,13238525390625;	272,5;	0,0;	0,0
412,1868591308594;	290,25;	0,0;	0,0
412,2413330078125;	346,75;	0,0;	0,0
412,2957458496094;	307,5;	0,0;	0,0
412,3501892089844;	296,75;	0,0;	0,0
412,4046325683594;	291,75;	0,0;	0,0
412,45904541015625;	265,0;	0,0;	0,0
412,5134582519531;	267,25;	0,0;	0,0
412,56781005859375;	263,75;	0,0;	0,0
412,6222229003906;	342,25;	0,0;	0,0
412,6766052246094;	333,75;	0,0;	0,0
412,73095703125;	301,5;	0,0;	0,0
412,7853088378906;	371,0;	0,0;	0,0
412,83966064453125;	380,25;	0,0;	0,0
412,8940124511719;	286,0;	0,0;	0,0
412,94830322265625;	278,25;	0,0;	0,0
413,0025939941406;	277,75;	0,0;	0,0
413,0569152832031;	277,0;	0,0;	0,0
413,1112060546875;	314,5;	0,0;	0,0
413,1654968261719;	484,0;	0,0;	0,0
413,2197570800781;	1118,5;	0,0;	0,0
413,2740173339844;	1843,75;	0,0;	0,0
413,3282775878906;	636,5;	0,0;	0,0
413,3825378417969;	389,75;	0,0;	0,0
413,436767578125;	373,5;	0,0;	0,0
413,4909973144531;	512,75;	0,0;	0,0
413,5451965332031;	555,25;	0,0;	0,0
413,5993957519531;	283,75;	0,0;	0,0
413,65362548828125;	283,25;	0,0;	0,0
413,7077941894531;	327,25;	0,0;	0,0
413,761962890625;	421,75;	0,0;	0,0
413,8161315917969;	286,5;	0,0;	0,0
413,87030029296875;	259,25;	0,0;	0,0
413,9244079589844;	286,5;	0,0;	0,0
413,97857666015625;	267,5;	0,0;	0,0
414,0326843261719;	275,25;	0,0;	0,0
414,0867919921875;	307,25;	0,0;	0,0
414,1408996582031;	267,5;	0,0;	0,0
414,1949462890625;	297,25;	0,0;	0,0
414,2490539550781;	307,75;	0,0;	0,0
414,3031311035156;	465,0;	0,0;	0,0
414,357177734375;	948,0;	0,0;	0,0
414,4112548828125;	2246,25;	0,0;	0,0
414,46527099609375;	2063,5;	0,0;	0,0
414,5193176269531;	418,25;	0,0;	0,0
414,5733337402344;	292,5;	0,0;	0,0
414,6273498535156;	301,5;	0,0;	0,0
414,6813659667969;	301,5;	0,0;	0,0
414,7353515625;	286,25;	0,0;	0,0
414,7893371582031;	356,5;	0,0;	0,0
414,8432922363281;	360,25;	0,0;	0,0
414,89727783203125;	290,75;	0,0;	0,0
414,95123291015625;	302,75;	0,0;	0,0
415,0051574707031;	325,0;	0,0;	0,0
415,05908203125;	296,75;	0,0;	0,0
415,1130065917969;	294,5;	0,0;	0,0
415,16693115234375;	291,75;	0,0;	0,0
415,2208251953125;	315,75;	0,0;	0,0
415,27471923828125;	332,0;	0,0;	0,0
415,32861328125;	292,75;	0,0;	0,0
415,3824768066406;	378,75;	0,0;	0,0
415,43634033203125;	612,25;	0,0;	0,0
415,49017333984375;	732,25;	0,0;	0,0
415,54400634765625;	601,5;	0,0;	0,0
415,59783935546875;	393,25;	0,0;	0,0
415,65167236328125;	322,25;	0,0;	0,0
415,7054748535156;	508,5;	0,0;	0,0
415,75927734375;	542,0;	0,0;	0,0
415,81304931640625;	411,75;	0,0;	0,0
415,8668518066406;	421,0;	0,0;	0,0
415,9206237792969;	362,0;	0,0;	0,0
415,974365234375;	350,75;	0,0;	0,0
416,02813720703125;	294,0;	0,0;	0,0
416,0818786621094;	280,25;	0,0;	0,0
416,1355895996094;	280,5;	0,0;	0,0
416,1893005371094;	278,5;	0,0;	0,0
416,2430114746094;	274,75;	0,0;	0,0
416,2967224121094;	263,5;	0,0;	0,0
416,35040283203125;	257,0;	0,0;	0,0
416,4040832519531;	254,75;	0,0;	0,0
416,457763671875;	256,25;	0,0;	0,0
416,51141357421875;	261,75;	0,0;	0,0
416,5650634765625;	268,75;	0,0;	0,0
416,6186828613281;	276,5;	0,0;	0,0
416,6723327636719;	278,25;	0,0;	0,0
416,7259521484375;	295,5;	0,0;	0,0
416,779541015625;	279,75;	0,0;	0,0
416,8331298828125;	297,75;	0,0;	0,0
416,88671875;	267,75;	0,0;	0,0
416,9403076171875;	298,5;	0,0;	0,0
416,99383544921875;	265,25;	0,0;	0,0
417,04742431640625;	289,25;	0,0;	0,0
417,1009826660156;	328,75;	0,0;	0,0
417,15447998046875;	396,75;	0,0;	0,0
417,2080383300781;	349,75;	0,0;	0,0
417,2615661621094;	396,5;	0,0;	0,0
417,3150329589844;	376,5;	0,0;	0,0
417,3685607910156;	349,25;	0,0;	0,0
417,4220275878906;	313,25;	0,0;	0,0
417,47552490234375;	312,75;	0,0;	0,0
417,5289611816406;	374,25;	0,0;	0,0
417,5824279785156;	447,75;	0,0;	0,0
417,6358642578125;	507,0;	0,0;	0,0
417,6893310546875;	396,0;	0,0;	0,0
417,74273681640625;	375,75;	0,0;	0,0
417,7961730957031;	342,0;	0,0;	0,0
417,84954833984375;	296,25;	0,0;	0,0
417,9029541015625;	297,5;	0,0;	0,0
417,9563293457031;	308,5;	0,0;	0,0
418,0096740722656;	282,25;	0,0;	0,0
418,0630798339844;	283,5;	0,0;	0,0
418,11639404296875;	329,5;	0,0;	0,0
418,1697692871094;	521,25;	0,0;	0,0
418,22308349609375;	982,25;	0,0;	0,0
418,2763977050781;	581,5;	0,0;	0,0
418,3297119140625;	347,25;	0,0;	0,0
418,3830261230469;	298,25;	0,0;	0,0
418,4363098144531;	277,5;	0,0;	0,0
418,4895935058594;	359,5;	0,0;	0,0
418,5428466796875;	468,25;	0,0;	0,0
418,59613037109375;	361,0;	0,0;	0,0
418,6493835449219;	366,5;	0,0;	0,0
418,70263671875;	568,75;	0,0;	0,0
418,755859375;	1099,25;	0,0;	0,0
418,80908203125;	1115,0;	0,0;	0,0
418,8622741699219;	962,5;	0,0;	0,0
418,9154968261719;	357,75;	0,0;	0,0
418,96868896484375;	331,75;	0,0;	0,0
419,0218811035156;	304,5;	0,0;	0,0
419,0750427246094;	299,5;	0,0;	0,0
419,1282043457031;	416,25;	0,0;	0,0
419,18133544921875;	728,75;	0,0;	0,0
419,2344970703125;	651,75;	0,0;	0,0
419,2876281738281;	307,75;	0,0;	0,0
419,3406982421875;	299,75;	0,0;	0,0
419,3938293457031;	274,0;	0,0;	0,0
419,4469299316406;	284,75;	0,0;	0,0
419,4999694824219;	305,75;	0,0;	0,0
419,5530700683594;	380,75;	0,0;	0,0
419,60614013671875;	466,75;	0,0;	0,0
419,6592102050781;	402,0;	0,0;	0,0
419,7122497558594;	396,75;	0,0;	0,0
419,7652893066406;	386,25;	0,0;	0,0
419,8183288574219;	551,75;	0,0;	0,0
419,8713073730469;	1154,25;	0,0;	0,0
419,9243469238281;	1338,5;	0,0;	0,0
419,9773254394531;	1486,25;	0,0;	0,0
420,03033447265625;	423,5;	0,0;	0,0
420,0832824707031;	356,25;	0,0;	0,0
420,1362609863281;	463,0;	0,0;	0,0
420,1892395019531;	876,75;	0,0;	0,0
420,2421569824219;	2066,5;	0,0;	0,0
420,29510498046875;	1290,25;	0,0;	0,0
420,3480529785156;	345,5;	0,0;	0,0
420,40093994140625;	363,5;	0,0;	0,0
420,453857421875;	468,25;	0,0;	0,0
420,5067138671875;	303,75;	0,0;	0,0
420,5596008300781;	277,0;	0,0;	0,0
420,6124572753906;	281,75;	0,0;	0,0
420,66534423828125;	287,75;	0,0;	0,0
420,7181701660156;	315,0;	0,0;	0,0
420,7710266113281;	315,75;	0,0;	0,0
420,8238525390625;	298,0;	0,0;	0,0
420,8766784667969;	329,75;	0,0;	0,0
420,9294738769531;	334,25;	0,0;	0,0
420,9822998046875;	294,0;	0,0;	0,0
421,03509521484375;	392,25;	0,0;	0,0
421,0878601074219;	608,0;	0,0;	0,0
421,1406555175781;	397,25;	0,0;	0,0
421,1933898925781;	274,0;	0,0;	0,0
421,24615478515625;	251,0;	0,0;	0,0
421,2988586425781;	270,5;	0,0;	0,0
421,35162353515625;	298,5;	0,0;	0,0
421,4043273925781;	336,0;	0,0;	0,0
421,45703125;	295,5;	0,0;	0,0
421,5097351074219;	274,5;	0,0;	0,0
421,56243896484375;	330,75;	0,0;	0,0
421,6151123046875;	392,75;	0,0;	0,0
421,66778564453125;	404,5;	0,0;	0,0
421,7204284667969;	345,25;	0,0;	0,0
421,7730712890625;	341,25;	0,0;	0,0
421,8257141113281;	425,75;	0,0;	0,0
421,8783264160156;	327,75;	0,0;	0,0
421,9309387207031;	446,75;	0,0;	0,0
421,9835205078125;	758,0;	0,0;	0,0
422,0361328125;	418,0;	0,0;	0,0
422,0887145996094;	353,25;	0,0;	0,0
422,14129638671875;	315,75;	0,0;	0,0
422,19384765625;	347,25;	0,0;	0,0
422,2464294433594;	504,5;	0,0;	0,0
422,2989501953125;	562,5;	0,0;	0,0
422,35150146484375;	385,5;	0,0;	0,0
422,4040222167969;	415,75;	0,0;	0,0
422,45654296875;	601,0;	0,0;	0,0
422,509033203125;	648,25;	0,0;	0,0
422,5615234375;	862,75;	0,0;	0,0
422,614013671875;	1663,75;	0,0;	0,0
422,66650390625;	3957,75;	0,0;	0,0
422,71893310546875;	8369,0;	0,0;	0,0
422,7713928222656;	4617,5;	0,0;	0,0
422,8238525390625;	1661,75;	0,0;	0,0
422,8762512207031;	656,25;	0,0;	0,0
422,9286804199219;	477,25;	0,0;	0,0
422,9811096191406;	414,5;	0,0;	0,0
423,0334777832031;	334,25;	0,0;	0,0
423,08587646484375;	321,25;	0,0;	0,0
423,1382141113281;	297,0;	0,0;	0,0
423,19061279296875;	298,0;	0,0;	0,0
423,24298095703125;	334,25;	0,0;	0,0
423,2953186035156;	347,0;	0,0;	0,0
423,3476257324219;	505,5;	0,0;	0,0
423,3999938964844;	873,0;	0,0;	0,0
423,4522705078125;	688,5;	0,0;	0,0
423,5046081542969;	385,0;	0,0;	0,0
423,556884765625;	502,5;	0,0;	0,0
423,60919189453125;	959,25;	0,0;	0,0
423,6614685058594;	1448,0;	0,0;	0,0
423,7137145996094;	457,75;	0,0;	0,0
423,7659912109375;	349,0;	0,0;	0,0
423,8182373046875;	368,25;	0,0;	0,0
423,8704528808594;	438,0;	0,0;	0,0
423,92266845703125;	529,5;	0,0;	0,0
423,9748840332031;	492,75;	0,0;	0,0
424,027099609375;	389,5;	0,0;	0,0
424,07928466796875;	330,0;	0,0;	0,0
424,1314697265625;	299,5;	0,0;	0,0
424,18365478515625;	270,75;	0,0;	0,0
424,2358093261719;	260,75;	0,0;	0,0
424,2879333496094;	268,25;	0,0;	0,0
424,340087890625;	294,5;	0,0;	0,0
424,3921813964844;	301,75;	0,0;	0,0
424,4443054199219;	267,75;	0,0;	0,0
424,4964294433594;	272,25;	0,0;	0,0
424,54852294921875;	330,5;	0,0;	0,0
424,6006164550781;	377,25;	0,0;	0,0
424,6526794433594;	340,25;	0,0;	0,0
424,70477294921875;	318,25;	0,0;	0,0
424,7568359375;	421,0;	0,0;	0,0
424,8088684082031;	553,75;	0,0;	0,0
424,8609313964844;	389,5;	0,0;	0,0
424,9129333496094;	353,5;	0,0;	0,0
424,9649353027344;	433,5;	0,0;	0,0
425,0169677734375;	863,0;	0,0;	0,0
425,0689697265625;	1720,25;	0,0;	0,0
425,1209411621094;	2281,25;	0,0;	0,0
425,17291259765625;	1004,25;	0,0;	0,0
425,2248840332031;	288,25;	0,0;	0,0
425,2768249511719;	266,5;	0,0;	0,0
425,3287658691406;	267,5;	0,0;	0,0
425,3807067871094;	298,0;	0,0;	0,0
425,4326171875;	311,0;	0,0;	0,0
425,48455810546875;	435,5;	0,0;	0,0
425,53643798828125;	295,75;	0,0;	0,0
425,58831787109375;	257,25;	0,0;	0,0
425,6401672363281;	283,0;	0,0;	0,0
425,69207763671875;	267,5;	0,0;	0,0
425,7439270019531;	259,25;	0,0;	0,0
425,7957763671875;	281,75;	0,0;	0,0
425,8476257324219;	266,0;	0,0;	0,0
425,8994445800781;	341,5;	0,0;	0,0
425,9512634277344;	383,25;	0,0;	0,0
426,0030822753906;	643,0;	0,0;	0,0
426,05487060546875;	1462,25;	0,0;	0,0
426,1066589355469;	2921,5;	0,0;	0,0
426,158447265625;	876,25;	0,0;	0,0
426,210205078125;	338,0;	0,0;	0,0
426,261962890625;	296,0;	0,0;	0,0
426,3136901855469;	274,5;	0,0;	0,0
426,3654479980469;	264,75;	0,0;	0,0
426,41717529296875;	269,0;	0,0;	0,0
426,4688720703125;	305,0;	0,0;	0,0
426,5205993652344;	263,5;	0,0;	0,0
426,572265625;	260,25;	0,0;	0,0
426,62396240234375;	292,75;	0,0;	0,0
426,6756286621094;	286,0;	0,0;	0,0
426,727294921875;	311,5;	0,0;	0,0
426,7789306640625;	300,25;	0,0;	0,0
426,83056640625;	357,5;	0,0;	0,0
426,8822021484375;	297,75;	0,0;	0,0
426,93377685546875;	331,0;	0,0;	0,0
426,98541259765625;	318,25;	0,0;	0,0
427,0370178222656;	394,0;	0,0;	0,0
427,0885925292969;	710,25;	0,0;	0,0
427,14019775390625;	1752,75;	0,0;	0,0
427,1917419433594;	3752,0;	0,0;	0,0
427,2433166503906;	3958,0;	0,0;	0,0
427,29486083984375;	644,5;	0,0;	0,0
427,34637451171875;	316,5;	0,0;	0,0
427,3979187011719;	320,25;	0,0;	0,0
427,4494323730469;	311,0;	0,0;	0,0
427,50091552734375;	364,0;	0,0;	0,0
427,55242919921875;	350,75;	0,0;	0,0
427,6039123535156;	288,25;	0,0;	0,0
427,6553955078125;	257,5;	0,0;	0,0
427,70684814453125;	253,5;	0,0;	0,0
427,75830078125;	271,0;	0,0;	0,0
427,80975341796875;	259,25;	0,0;	0,0
427,8612060546875;	279,0;	0,0;	0,0
427,91259765625;	259,25;	0,0;	0,0
427,9639587402344;	255,25;	0,0;	0,0
428,0154113769531;	268,5;	0,0;	0,0
428,0667724609375;	269,5;	0,0;	0,0
428,1181335449219;	288,0;	0,0;	0,0
428,1695251464844;	304,0;	0,0;	0,0
428,22088623046875;	433,5;	0,0;	0,0
428,272216796875;	910,25;	0,0;	0,0
428,32354736328125;	997,75;	0,0;	0,0
428,3748779296875;	640,5;	0,0;	0,0
428,42620849609375;	284,5;	0,0;	0,0
428,4775390625;	268,25;	0,0;	0,0
428,5288391113281;	289,5;	0,0;	0,0
428,5801086425781;	295,25;	0,0;	0,0
428,6313781738281;	283,25;	0,0;	0,0
428,6826477050781;	290,25;	0,0;	0,0
428,7339172363281;	285,5;	0,0;	0,0
428,78515625;	264,25;	0,0;	0,0
428,83636474609375;	287,5;	0,0;	0,0
428,8875732421875;	314,5;	0,0;	0,0
428,93878173828125;	451,0;	0,0;	0,0
428,989990234375;	748,25;	0,0;	0,0
429,04119873046875;	408,5;	0,0;	0,0
429,0923767089844;	298,75;	0,0;	0,0
429,1435241699219;	278,25;	0,0;	0,0
429,1947021484375;	301,0;	0,0;	0,0
429,2458190917969;	272,5;	0,0;	0,0
429,29693603515625;	284,25;	0,0;	0,0
429,34808349609375;	330,75;	0,0;	0,0
429,3992004394531;	559,5;	0,0;	0,0
429,4503173828125;	1206,0;	0,0;	0,0
429,50140380859375;	692,75;	0,0;	0,0
429,552490234375;	268,0;	0,0;	0,0
429,60357666015625;	275,25;	0,0;	0,0
429,6546325683594;	272,75;	0,0;	0,0
429,7056884765625;	274,0;	0,0;	0,0
429,7567138671875;	280,75;	0,0;	0,0
429,8077697753906;	337,0;	0,0;	0,0
429,8587951660156;	444,0;	0,0;	0,0
429,9097900390625;	713,75;	0,0;	0,0
429,9608154296875;	1418,0;	0,0;	0,0
430,01177978515625;	753,75;	0,0;	0,0
430,0627746582031;	335,5;	0,0;	0,0
430,1137390136719;	319,0;	0,0;	0,0
430,1646728515625;	373,75;	0,0;	0,0
430,2156677246094;	507,0;	0,0;	0,0
430,2666015625;	1035,75;	0,0;	0,0
430,3175048828125;	1295,25;	0,0;	0,0
430,3684387207031;	350,5;	0,0;	0,0
430,4193115234375;	283,75;	0,0;	0,0
430,4701843261719;	293,0;	0,0;	0,0
430,5210876464844;	288,75;	0,0;	0,0
430,57196044921875;	330,5;	0,0;	0,0
430,6228332519531;	364,75;	0,0;	0,0
430,6736755371094;	419,25;	0,0;	0,0
430,7245178222656;	708,5;	0,0;	0,0
430,77532958984375;	1735,75;	0,0;	0,0
430,826171875;	4431,75;	0,0;	0,0
430,8769836425781;	2171,25;	0,0;	0,0
430,92779541015625;	451,0;	0,0;	0,0
430,97857666015625;	418,75;	0,0;	0,0
431,0293273925781;	326,75;	0,0;	0,0
431,0801086425781;	277,75;	0,0;	0,0
431,1308898925781;	264,0;	0,0;	0,0
431,1816101074219;	259,5;	0,0;	0,0
431,23236083984375;	271,75;	0,0;	0,0
431,2830810546875;	264,75;	0,0;	0,0
431,33380126953125;	255,25;	0,0;	0,0
431,3844909667969;	261,0;	0,0;	0,0
431,4352111816406;	321,25;	0,0;	0,0
431,4858703613281;	372,25;	0,0;	0,0
431,53656005859375;	646,75;	0,0;	0,0
431,5871887207031;	490,5;	0,0;	0,0
431,63787841796875;	275,5;	0,0;	0,0
431,6885070800781;	255,5;	0,0;	0,0
431,7391052246094;	259,0;	0,0;	0,0
431,78973388671875;	294,25;	0,0;	0,0
431,84033203125;	387,75;	0,0;	0,0
431,8909606933594;	642,75;	0,0;	0,0
431,9415283203125;	560,25;	0,0;	0,0
431,99212646484375;	277,0;	0,0;	0,0
432,0426940917969;	234,0;	0,0;	0,0
432,0932312011719;	259,75;	0,0;	0,0
432,1437683105469;	270,25;	0,0;	0,0
432,1943054199219;	256,0;	0,0;	0,0
432,2448425292969;	285,0;	0,0;	0,0
432,29534912109375;	299,5;	0,0;	0,0
432,3458557128906;	271,75;	0,0;	0,0
432,3963623046875;	298,0;	0,0;	0,0
432,44683837890625;	372,0;	0,0;	0,0
432,497314453125;	583,0;	0,0;	0,0
432,5477600097656;	1242,25;	0,0;	0,0
432,59820556640625;	3429,75;	0,0;	0,0
432,6486511230469;	3071,0;	0,0;	0,0
432,6990966796875;	501,0;	0,0;	0,0
432,74951171875;	369,0;	0,0;	0,0
432,7999267578125;	300,5;	0,0;	0,0
432,8503112792969;	286,25;	0,0;	0,0
432,9006652832031;	260,0;	0,0;	0,0
432,9510498046875;	274,5;	0,0;	0,0
433,00140380859375;	256,0;	0,0;	0,0
433,0517883300781;	231,75;	0,0;	0,0
433,10211181640625;	247,0;	0,0;	0,0
433,1524658203125;	256,0;	0,0;	0,0
433,2027587890625;	277,25;	0,0;	0,0
433,2530822753906;	256,5;	0,0;	0,0
433,30340576171875;	253,75;	0,0;	0,0
433,3536682128906;	248,0;	0,0;	0,0
433,4039611816406;	241,0;	0,0;	0,0
433,4542541503906;	235,0;	0,0;	0,0
433,5044860839844;	251,75;	0,0;	0,0
433,55474853515625;	252,25;	0,0;	0,0
433,60498046875;	272,0;	0,0;	0,0
433,6551818847656;	297,5;	0,0;	0,0
433,7054138183594;	398,0;	0,0;	0,0
433,755615234375;	549,75;	0,0;	0,0
433,8058166503906;	323,5;	0,0;	0,0
433,8559875488281;	250,0;	0,0;	0,0
433,9061584472656;	252,25;	0,0;	0,0
433,9563293457031;	253,5;	0,0;	0,0
434,0064697265625;	258,75;	0,0;	0,0
434,056640625;	245,75;	0,0;	0,0
434,10675048828125;	265,5;	0,0;	0,0
434,1568603515625;	264,0;	0,0;	0,0
434,20697021484375;	266,25;	0,0;	0,0
434,2570495605469;	254,75;	0,0;	0,0
434,3071594238281;	253,25;	0,0;	0,0
434,35723876953125;	259,25;	0,0;	0,0
434,40728759765625;	293,0;	0,0;	0,0
434,4573669433594;	264,5;	0,0;	0,0
434,50738525390625;	254,25;	0,0;	0,0
434,55743408203125;	263,0;	0,0;	0,0
434,6074523925781;	244,0;	0,0;	0,0
434,657470703125;	259,5;	0,0;	0,0
434,70745849609375;	293,75;	0,0;	0,0
434,7574768066406;	271,5;	0,0;	0,0
434,8074645996094;	223,5;	0,0;	0,0
434,857421875;	247,0;	0,0;	0,0
434,90740966796875;	238,75;	0,0;	0,0
434,95733642578125;	256,75;	0,0;	0,0
435,00726318359375;	269,25;	0,0;	0,0
435,05718994140625;	266,75;	0,0;	0,0
435,1071472167969;	265,0;	0,0;	0,0
435,1570129394531;	291,25;	0,0;	0,0
435,2069396972656;	328,75;	0,0;	0,0
435,25677490234375;	347,0;	0,0;	0,0
435,3066711425781;	439,25;	0,0;	0,0
435,35650634765625;	339,5;	0,0;	0,0
435,4063720703125;	285,5;	0,0;	0,0
435,4562072753906;	269,75;	0,0;	0,0
435,50604248046875;	255,0;	0,0;	0,0
435,5558776855469;	259,0;	0,0;	0,0
435,60565185546875;	257,75;	0,0;	0,0
435,65545654296875;	261,75;	0,0;	0,0
435,70526123046875;	251,25;	0,0;	0,0
435,75506591796875;	260,0;	0,0;	0,0
435,8048095703125;	259,0;	0,0;	0,0
435,85455322265625;	262,25;	0,0;	0,0
435,9043273925781;	271,75;	0,0;	0,0
435,95404052734375;	258,0;	0,0;	0,0
436,0037841796875;	247,5;	0,0;	0,0
436,053466796875;	263,5;	0,0;	0,0
436,1031799316406;	226,5;	0,0;	0,0
436,1528625488281;	257,75;	0,0;	0,0
436,20257568359375;	241,0;	0,0;	0,0
436,2522277832031;	245,75;	0,0;	0,0
436,3019104003906;	250,75;	0,0;	0,0
436,3515625;	249,75;	0,0;	0,0
436,4011535644531;	252,75;	0,0;	0,0
436,4508056640625;	225,5;	0,0;	0,0
436,50042724609375;	243,25;	0,0;	0,0
436,5500183105469;	241,25;	0,0;	0,0
436,599609375;	242,25;	0,0;	0,0
436,6492004394531;	261,25;	0,0;	0,0
436,6987609863281;	251,75;	0,0;	0,0
436,7483215332031;	267,0;	0,0;	0,0
436,7978820800781;	327,5;	0,0;	0,0
436,847412109375;	286,0;	0,0;	0,0
436,8969421386719;	258,0;	0,0;	0,0
436,94647216796875;	289,75;	0,0;	0,0
436,9959716796875;	334,0;	0,0;	0,0
437,0455017089844;	355,75;	0,0;	0,0
437,094970703125;	242,0;	0,0;	0,0
437,1444396972656;	245,5;	0,0;	0,0
437,19390869140625;	247,25;	0,0;	0,0
437,2433776855469;	248,5;	0,0;	0,0
437,2928161621094;	251,25;	0,0;	0,0
437,3422546386719;	267,5;	0,0;	0,0
437,3916931152344;	263,75;	0,0;	0,0
437,4410705566406;	261,0;	0,0;	0,0
437,4905090332031;	277,75;	0,0;	0,0
437,53985595703125;	306,5;	0,0;	0,0
437,5892639160156;	381,25;	0,0;	0,0
437,63861083984375;	507,25;	0,0;	0,0
437,6879577636719;	325,0;	0,0;	0,0
437,7373046875;	257,75;	0,0;	0,0
437,7866516113281;	243,25;	0,0;	0,0
437,8359680175781;	238,5;	0,0;	0,0
437,8852844238281;	260,0;	0,0;	0,0
437,9346008300781;	253,0;	0,0;	0,0
437,98388671875;	251,75;	0,0;	0,0
438,0331726074219;	258,5;	0,0;	0,0
438,0824279785156;	269,75;	0,0;	0,0
438,1317138671875;	307,0;	0,0;	0,0
438,1809387207031;	366,0;	0,0;	0,0
438,2301940917969;	455,25;	0,0;	0,0
438,2794189453125;	901,25;	0,0;	0,0
438,3286437988281;	2080,25;	0,0;	0,0
438,37786865234375;	5291,0;	0,0;	0,0
438,42706298828125;	3539,0;	0,0;	0,0
438,4762268066406;	591,5;	0,0;	0,0
438,525390625;	354,5;	0,0;	0,0
438,5745849609375;	311,5;	0,0;	0,0
438,62371826171875;	285,5;	0,0;	0,0
438,6728210449219;	294,5;	0,0;	0,0
438,7220153808594;	267,25;	0,0;	0,0
438,7710876464844;	275,25;	0,0;	0,0
438,8202209472656;	327,25;	0,0;	0,0
438,8692932128906;	345,75;	0,0;	0,0
438,91839599609375;	307,25;	0,0;	0,0
438,96746826171875;	267,0;	0,0;	0,0
439,01654052734375;	253,5;	0,0;	0,0
439,0655822753906;	290,5;	0,0;	0,0
439,1146240234375;	298,25;	0,0;	0,0
439,1636962890625;	262,0;	0,0;	0,0
439,21270751953125;	262,0;	0,0;	0,0
439,26171875;	263,25;	0,0;	0,0
439,3106994628906;	273,25;	0,0;	0,0
439,3597106933594;	274,5;	0,0;	0,0
439,4086608886719;	231,5;	0,0;	0,0
439,4576416015625;	264,5;	0,0;	0,0
439,506591796875;	243,5;	0,0;	0,0
439,5555419921875;	260,0;	0,0;	0,0
439,6044921875;	237,25;	0,0;	0,0
439,6534118652344;	260,25;	0,0;	0,0
439,70233154296875;	244,75;	0,0;	0,0
439,7512512207031;	238,75;	0,0;	0,0
439,8001403808594;	252,0;	0,0;	0,0
439,8489990234375;	253,0;	0,0;	0,0
439,8978576660156;	261,0;	0,0;	0,0
439,94677734375;	251,25;	0,0;	0,0
439,9955749511719;	276,75;	0,0;	0,0
440,0444030761719;	238,5;	0,0;	0,0
440,0932312011719;	262,5;	0,0;	0,0
440,1420593261719;	298,0;	0,0;	0,0
440,19085693359375;	271,5;	0,0;	0,0
440,2396545410156;	261,25;	0,0;	0,0
440,2884521484375;	306,25;	0,0;	0,0
440,3372497558594;	362,75;	0,0;	0,0
440,385986328125;	577,5;	0,0;	0,0
440,4347229003906;	1080,25;	0,0;	0,0
440,48345947265625;	2830,0;	0,0;	0,0
440,5322265625;	3230,0;	0,0;	0,0
440,5809326171875;	511,75;	0,0;	0,0
440,629638671875;	286,25;	0,0;	0,0
440,6783447265625;	298,0;	0,0;	0,0
440,7270202636719;	276,0;	0,0;	0,0
440,77569580078125;	274,0;	0,0;	0,0
440,8243713378906;	333,25;	0,0;	0,0
440,8730163574219;	312,5;	0,0;	0,0
440,9216613769531;	290,0;	0,0;	0,0
440,9703063964844;	277,0;	0,0;	0,0
441,0188903808594;	243,5;	0,0;	0,0
441,0675354003906;	253,0;	0,0;	0,0
441,1160888671875;	253,25;	0,0;	0,0
441,1647033691406;	243,0;	0,0;	0,0
441,2132568359375;	247,0;	0,0;	0,0
441,2618408203125;	252,75;	0,0;	0,0
441,3103942871094;	272,0;	0,0;	0,0
441,35894775390625;	279,5;	0,0;	0,0
441,4075012207031;	369,5;	0,0;	0,0
441,45599365234375;	585,0;	0,0;	0,0
441,5044860839844;	1109,75;	0,0;	0,0
441,5530090332031;	2003,0;	0,0;	0,0
441,60150146484375;	617,25;	0,0;	0,0
441,64996337890625;	271,25;	0,0;	0,0
441,6984558105469;	255,5;	0,0;	0,0
441,7469177246094;	273,75;	0,0;	0,0
441,79534912109375;	262,0;	0,0;	0,0
441,8437805175781;	265,5;	0,0;	0,0
441,8922119140625;	220,5;	0,0;	0,0
441,9406433105469;	250,25;	0,0;	0,0
441,9890441894531;	236,75;	0,0;	0,0
442,03741455078125;	229,5;	0,0;	0,0
442,0858154296875;	250,75;	0,0;	0,0
442,1341552734375;	229,75;	0,0;	0,0
442,18255615234375;	266,5;	0,0;	0,0
442,2308654785156;	297,25;	0,0;	0,0
442,2792053222656;	304,75;	0,0;	0,0
442,3275146484375;	306,25;	0,0;	0,0
442,3758544921875;	254,75;	0,0;	0,0
442,4241638183594;	272,25;	0,0;	0,0
442,4724426269531;	290,5;	0,0;	0,0
442,520751953125;	383,75;	0,0;	0,0
442,5690002441406;	557,5;	0,0;	0,0
442,6172790527344;	432,25;	0,0;	0,0
442,66552734375;	311,5;	0,0;	0,0
442,7137756347656;	362,25;	0,0;	0,0
442,7619934082031;	549,25;	0,0;	0,0
442,8102111816406;	352,25;	0,0;	0,0
442,8583984375;	263,5;	0,0;	0,0
442,9066162109375;	261,75;	0,0;	0,0
442,9548034667969;	248,5;	0,0;	0,0
443,0029602050781;	268,5;	0,0;	0,0
443,0511169433594;	304,5;	0,0;	0,0
443,0992736816406;	315,75;	0,0;	0,0
443,1474304199219;	287,25;	0,0;	0,0
443,195556640625;	265,75;	0,0;	0,0
443,2436828613281;	287,75;	0,0;	0,0
443,2917785644531;	281,25;	0,0;	0,0
443,33984375;	308,75;	0,0;	0,0
443,3879699707031;	341,0;	0,0;	0,0
443,4360046386719;	443,25;	0,0;	0,0
443,48406982421875;	665,25;	0,0;	0,0
443,5321350097656;	971,0;	0,0;	0,0
443,5802001953125;	627,75;	0,0;	0,0
443,6282043457031;	436,0;	0,0;	0,0
443,6762390136719;	298,0;	0,0;	0,0
443,7242431640625;	254,5;	0,0;	0,0
443,7722473144531;	252,0;	0,0;	0,0
443,8202209472656;	257,75;	0,0;	0,0
443,86822509765625;	261,0;	0,0;	0,0
443,9161682128906;	252,0;	0,0;	0,0
443,964111328125;	250,25;	0,0;	0,0
444,0120544433594;	268,0;	0,0;	0,0
444,05999755859375;	260,75;	0,0;	0,0
444,10791015625;	268,5;	0,0;	0,0
444,15582275390625;	273,5;	0,0;	0,0
444,2037353515625;	323,0;	0,0;	0,0
444,2516174316406;	463,5;	0,0;	0,0
444,29949951171875;	413,75;	0,0;	0,0
444,34735107421875;	373,75;	0,0;	0,0
444,3952331542969;	280,75;	0,0;	0,0
444,4430236816406;	242,0;	0,0;	0,0
444,49090576171875;	262,75;	0,0;	0,0
444,5386962890625;	230,25;	0,0;	0,0
444,58648681640625;	249,75;	0,0;	0,0
444,6343078613281;	268,25;	0,0;	0,0
444,6820983886719;	275,5;	0,0;	0,0
444,7298583984375;	317,75;	0,0;	0,0
444,77764892578125;	372,5;	0,0;	0,0
444,82537841796875;	379,75;	0,0;	0,0
444,8731384277344;	252,0;	0,0;	0,0
444,9208679199219;	246,25;	0,0;	0,0
444,9685974121094;	251,75;	0,0;	0,0
445,0163269042969;	250,25;	0,0;	0,0
445,0639953613281;	255,75;	0,0;	0,0
445,1117248535156;	236,0;	0,0;	0,0
445,1593933105469;	252,0;	0,0;	0,0
445,2070617675781;	274,25;	0,0;	0,0
445,25469970703125;	271,0;	0,0;	0,0
445,3023376464844;	281,75;	0,0;	0,0
445,3499755859375;	352,5;	0,0;	0,0
445,3976135253906;	468,0;	0,0;	0,0
445,4452209472656;	740,5;	0,0;	0,0
445,4928283691406;	1312,0;	0,0;	0,0
445,5404357910156;	996,75;	0,0;	0,0
445,5880126953125;	519,25;	0,0;	0,0
445,63555908203125;	485,0;	0,0;	0,0
445,6831359863281;	325,25;	0,0;	0,0
445,73065185546875;	293,0;	0,0;	0,0
445,7781982421875;	290,75;	0,0;	0,0
445,8257141113281;	297,0;	0,0;	0,0
445,87322998046875;	316,5;	0,0;	0,0
445,92071533203125;	425,0;	0,0;	0,0
445,9682312011719;	415,0;	0,0;	0,0
446,01568603515625;	265,75;	0,0;	0,0
446,06317138671875;	286,5;	0,0;	0,0
446,1106262207031;	295,25;	0,0;	0,0
446,1580810546875;	339,0;	0,0;	0,0
446,2055358886719;	394,5;	0,0;	0,0
446,2529602050781;	306,25;	0,0;	0,0
446,30035400390625;	258,75;	0,0;	0,0
446,3477478027344;	246,0;	0,0;	0,0
446,3951416015625;	243,0;	0,0;	0,0
446,4425354003906;	261,75;	0,0;	0,0
446,4898986816406;	277,5;	0,0;	0,0
446,5372619628906;	300,25;	0,0;	0,0
446,5846252441406;	285,0;	0,0;	0,0
446,6319580078125;	359,0;	0,0;	0,0
446,6792907714844;	567,75;	0,0;	0,0
446,7265625;	385,25;	0,0;	0,0
446,7738952636719;	265,5;	0,0;	0,0
446,8211669921875;	263,0;	0,0;	0,0
446,8684387207031;	287,5;	0,0;	0,0
446,91571044921875;	275,25;	0,0;	0,0
446,9629821777344;	346,0;	0,0;	0,0
447,0102233886719;	286,75;	0,0;	0,0
447,05743408203125;	247,5;	0,0;	0,0
447,10467529296875;	258,25;	0,0;	0,0
447,1518859863281;	234,5;	0,0;	0,0
447,1990966796875;	245,0;	0,0;	0,0
447,2463073730469;	263,75;	0,0;	0,0
447,2934875488281;	228,75;	0,0;	0,0
447,34063720703125;	268,0;	0,0;	0,0
447,3878173828125;	229,25;	0,0;	0,0
447,4349365234375;	251,5;	0,0;	0,0
447,4820861816406;	255,75;	0,0;	0,0
447,5292053222656;	301,25;	0,0;	0,0
447,5763244628906;	373,5;	0,0;	0,0
447,6234436035156;	515,0;	0,0;	0,0
447,6705322265625;	390,25;	0,0;	0,0
447,7176208496094;	271,25;	0,0;	0,0
447,7646789550781;	263,5;	0,0;	0,0
447,81170654296875;	250,25;	0,0;	0,0
447,8587951660156;	253,0;	0,0;	0,0
447,9057922363281;	248,0;	0,0;	0,0
447,95281982421875;	251,0;	0,0;	0,0
447,9998474121094;	268,75;	0,0;	0,0
448,0468444824219;	251,5;	0,0;	0,0
448,0938415527344;	271,0;	0,0;	0,0
448,1408386230469;	280,5;	0,0;	0,0
448,18780517578125;	314,5;	0,0;	0,0
448,2347412109375;	409,25;	0,0;	0,0
448,28167724609375;	369,25;	0,0;	0,0
448,3286437988281;	257,5;	0,0;	0,0
448,3755798339844;	276,75;	0,0;	0,0
448,4224853515625;	271,25;	0,0;	0,0
448,4693908691406;	300,5;	0,0;	0,0
448,51629638671875;	269,0;	0,0;	0,0
448,56317138671875;	276,75;	0,0;	0,0
448,61004638671875;	253,75;	0,0;	0,0
448,6568908691406;	235,0;	0,0;	0,0
448,7037353515625;	218,75;	0,0;	0,0
448,7505798339844;	230,0;	0,0;	0,0
448,79742431640625;	243,25;	0,0;	0,0
448,8442077636719;	251,75;	0,0;	0,0
448,8910217285156;	263,5;	0,0;	0,0
448,9378356933594;	260,25;	0,0;	0,0
448,98455810546875;	283,5;	0,0;	0,0
449,0313415527344;	291,0;	0,0;	0,0
449,0780944824219;	273,25;	0,0;	0,0
449,1248474121094;	224,75;	0,0;	0,0
449,1716003417969;	254,5;	0,0;	0,0
449,21832275390625;	240,75;	0,0;	0,0
449,2650146484375;	257,5;	0,0;	0,0
449,31170654296875;	238,0;	0,0;	0,0
449,3583984375;	279,75;	0,0;	0,0
449,40509033203125;	312,25;	0,0;	0,0
449,4517517089844;	417,75;	0,0;	0,0
449,4984130859375;	506,75;	0,0;	0,0
449,5450744628906;	289,0;	0,0;	0,0
449,5917053222656;	261,25;	0,0;	0,0
449,6383361816406;	247,5;	0,0;	0,0
449,6849670410156;	249,75;	0,0;	0,0
449,7315673828125;	246,75;	0,0;	0,0
449,77813720703125;	247,0;	0,0;	0,0
449,8247375488281;	244,5;	0,0;	0,0
449,8713073730469;	237,75;	0,0;	0,0
449,9178466796875;	253,25;	0,0;	0,0
449,96441650390625;	247,75;	0,0;	0,0
450,0109558105469;	231,5;	0,0;	0,0
450,05743408203125;	260,25;	0,0;	0,0
450,1039733886719;	246,75;	0,0;	0,0
450,15045166015625;	225,5;	0,0;	0,0
450,1969299316406;	240,25;	0,0;	0,0
450,243408203125;	253,25;	0,0;	0,0
450,2899169921875;	265,5;	0,0;	0,0
450,33636474609375;	231,25;	0,0;	0,0
450,3828125;	213,75;	0,0;	0,0
450,4292297363281;	242,0;	0,0;	0,0
450,4756774902344;	229,0;	0,0;	0,0
450,5220947265625;	228,75;	0,0;	0,0
450,5684509277344;	228,5;	0,0;	0,0
450,6148376464844;	234,25;	0,0;	0,0
450,6612243652344;	236,5;	0,0;	0,0
450,7076110839844;	254,0;	0,0;	0,0
450,75396728515625;	230,25;	0,0;	0,0
450,8003234863281;	233,25;	0,0;	0,0
450,84661865234375;	242,5;	0,0;	0,0
450,8929748535156;	243,75;	0,0;	0,0
450,93927001953125;	237,5;	0,0;	0,0
450,985595703125;	244,5;	0,0;	0,0
451,0318603515625;	221,5;	0,0;	0,0
451,078125;	237,75;	0,0;	0,0
451,1243896484375;	235,75;	0,0;	0,0
451,1706848144531;	233,75;	0,0;	0,0
451,2168884277344;	230,75;	0,0;	0,0
451,26312255859375;	239,25;	0,0;	0,0
451,309326171875;	242,75;	0,0;	0,0
451,35552978515625;	246,75;	0,0;	0,0
451,4017333984375;	251,25;	0,0;	0,0
451,44793701171875;	256,25;	0,0;	0,0
451,4941101074219;	237,5;	0,0;	0,0
451,540283203125;	256,75;	0,0;	0,0
451,58642578125;	247,25;	0,0;	0,0
451,632568359375;	246,5;	0,0;	0,0
451,6787109375;	245,5;	0,0;	0,0
451,7248229980469;	234,25;	0,0;	0,0
451,77093505859375;	238,75;	0,0;	0,0
451,8170166015625;	244,0;	0,0;	0,0
451,8631286621094;	245,25;	0,0;	0,0
451,9092102050781;	226,25;	0,0;	0,0
451,95526123046875;	220,0;	0,0;	0,0
452,0013427734375;	240,75;	0,0;	0,0
452,04736328125;	225,5;	0,0;	0,0
452,0933837890625;	213,5;	0,0;	0,0
452,139404296875;	254,5;	0,0;	0,0
452,1854248046875;	215,5;	0,0;	0,0
452,2314147949219;	248,75;	0,0;	0,0
452,2773742675781;	262,25;	0,0;	0,0
452,3233642578125;	262,75;	0,0;	0,0
452,36932373046875;	245,75;	0,0;	0,0
452,4152526855469;	247,75;	0,0;	0,0
452,4612121582031;	272,25;	0,0;	0,0
452,5071105957031;	294,5;	0,0;	0,0
452,55303955078125;	306,25;	0,0;	0,0
452,5989685058594;	276,75;	0,0;	0,0
452,64483642578125;	258,75;	0,0;	0,0
452,6907653808594;	285,5;	0,0;	0,0
452,7366027832031;	315,75;	0,0;	0,0
452,7825012207031;	364,5;	0,0;	0,0
452,8283386230469;	452,25;	0,0;	0,0
452,8741455078125;	679,75;	0,0;	0,0
452,9200134277344;	531,25;	0,0;	0,0
452,9658203125;	276,75;	0,0;	0,0
453,0116271972656;	270,25;	0,0;	0,0
453,0574035644531;	281,0;	0,0;	0,0
453,10321044921875;	291,25;	0,0;	0,0
453,1489562988281;	333,5;	0,0;	0,0
453,1947326660156;	266,75;	0,0;	0,0
453,240478515625;	238,5;	0,0;	0,0
453,2862243652344;	243,0;	0,0;	0,0
453,3319091796875;	283,5;	0,0;	0,0
453,3776550292969;	259,75;	0,0;	0,0
453,42333984375;	244,25;	0,0;	0,0
453,4690246582031;	256,25;	0,0;	0,0
453,51470947265625;	237,5;	0,0;	0,0
453,56036376953125;	238,25;	0,0;	0,0
453,6060485839844;	243,25;	0,0;	0,0
453,65167236328125;	241,5;	0,0;	0,0
453,69732666015625;	225,0;	0,0;	0,0
453,7429504394531;	231,75;	0,0;	0,0
453,7885437011719;	242,5;	0,0;	0,0
453,8341369628906;	232,0;	0,0;	0,0
453,8797302246094;	250,75;	0,0;	0,0
453,92535400390625;	237,0;	0,0;	0,0
453,9709167480469;	226,25;	0,0;	0,0
454,0164794921875;	225,25;	0,0;	0,0
454,0619812011719;	239,5;	0,0;	0,0
454,1075134277344;	238,25;	0,0;	0,0
454,1530456542969;	242,0;	0,0;	0,0
454,1985778808594;	249,0;	0,0;	0,0
454,24407958984375;	238,0;	0,0;	0,0
454,28955078125;	239,25;	0,0;	0,0
454,3350524902344;	237,5;	0,0;	0,0
454,3804931640625;	219,5;	0,0;	0,0
454,42596435546875;	238,5;	0,0;	0,0
454,4713439941406;	233,0;	0,0;	0,0
454,516845703125;	242,5;	0,0;	0,0
454,5622253417969;	235,75;	0,0;	0,0
454,6076354980469;	236,75;	0,0;	0,0
454,6530456542969;	256,75;	0,0;	0,0
454,69842529296875;	246,5;	0,0;	0,0
454,7438049316406;	283,25;	0,0;	0,0
454,7891540527344;	282,75;	0,0;	0,0
454,8345031738281;	271,75;	0,0;	0,0
454,8798522949219;	247,75;	0,0;	0,0
454,9252014160156;	251,25;	0,0;	0,0
454,97052001953125;	258,5;	0,0;	0,0
455,01580810546875;	241,25;	0,0;	0,0
455,06109619140625;	252,25;	0,0;	0,0
455,10638427734375;	223,75;	0,0;	0,0
455,1516418457031;	247,5;	0,0;	0,0
455,1969299316406;	253,25;	0,0;	0,0
455,2421569824219;	263,5;	0,0;	0,0
455,28741455078125;	292,5;	0,0;	0,0
455,3326416015625;	287,25;	0,0;	0,0
455,37786865234375;	326,25;	0,0;	0,0
455,4230651855469;	421,0;	0,0;	0,0
455,46826171875;	281,25;	0,0;	0,0
455,5133972167969;	264,75;	0,0;	0,0
455,55859375;	264,5;	0,0;	0,0
455,603759765625;	275,0;	0,0;	0,0
455,6488952636719;	275,5;	0,0;	0,0
455,69403076171875;	246,5;	0,0;	0,0
455,7391357421875;	238,25;	0,0;	0,0
455,7842712402344;	236,75;	0,0;	0,0
455,8293762207031;	214,5;	0,0;	0,0
455,8744812011719;	241,25;	0,0;	0,0
455,9195251464844;	236,25;	0,0;	0,0
455,964599609375;	237,5;	0,0;	0,0
456,0096740722656;	249,25;	0,0;	0,0
456,0547180175781;	231,75;	0,0;	0,0
456,0997619628906;	233,5;	0,0;	0,0
456,144775390625;	226,0;	0,0;	0,0
456,18975830078125;	233,75;	0,0;	0,0
456,23480224609375;	229,5;	0,0;	0,0
456,27978515625;	239,75;	0,0;	0,0
456,3247375488281;	246,75;	0,0;	0,0
456,3697204589844;	238,0;	0,0;	0,0
456,4146728515625;	252,25;	0,0;	0,0
456,4595947265625;	235,75;	0,0;	0,0
456,5045471191406;	219,25;	0,0;	0,0
456,5494384765625;	248,25;	0,0;	0,0
456,5943908691406;	246,5;	0,0;	0,0
456,6392517089844;	234,5;	0,0;	0,0
456,6841125488281;	251,75;	0,0;	0,0
456,72900390625;	250,5;	0,0;	0,0
456,77386474609375;	244,5;	0,0;	0,0
456,8186950683594;	228,75;	0,0;	0,0
456,8635559082031;	247,75;	0,0;	0,0
456,90838623046875;	241,25;	0,0;	0,0
456,9532165527344;	240,75;	0,0;	0,0
456,9980163574219;	240,75;	0,0;	0,0
457,04278564453125;	221,25;	0,0;	0,0
457,08758544921875;	224,75;	0,0;	0,0
457,13238525390625;	244,5;	0,0;	0,0
457,1771240234375;	241,75;	0,0;	0,0
457,2218933105469;	228,75;	0,0;	0,0
457,2666320800781;	227,0;	0,0;	0,0
457,31134033203125;	233,75;	0,0;	0,0
457,3560485839844;	232,25;	0,0;	0,0
457,4007568359375;	222,25;	0,0;	0,0
457,4454345703125;	251,75;	0,0;	0,0
457,4901428222656;	217,5;	0,0;	0,0
457,5347900390625;	233,75;	0,0;	0,0
457,5794677734375;	232,5;	0,0;	0,0
457,62408447265625;	247,0;	0,0;	0,0
457,668701171875;	242,25;	0,0;	0,0
457,7133483886719;	246,75;	0,0;	0,0
457,7579345703125;	241,75;	0,0;	0,0
457,80255126953125;	250,75;	0,0;	0,0
457,84710693359375;	243,5;	0,0;	0,0
457,8916931152344;	283,0;	0,0;	0,0
457,936279296875;	234,75;	0,0;	0,0
457,9808349609375;	238,75;	0,0;	0,0
458,025390625;	244,75;	0,0;	0,0
458,0699157714844;	242,75;	0,0;	0,0
458,1144104003906;	253,5;	0,0;	0,0
458,158935546875;	301,25;	0,0;	0,0
458,20343017578125;	278,75;	0,0;	0,0
458,2479248046875;	260,25;	0,0;	0,0
458,2923889160156;	240,75;	0,0;	0,0
458,33685302734375;	261,25;	0,0;	0,0
458,3813171386719;	261,5;	0,0;	0,0
458,4257507324219;	264,75;	0,0;	0,0
458,47015380859375;	239,0;	0,0;	0,0
458,51458740234375;	263,25;	0,0;	0,0
458,5589904785156;	267,5;	0,0;	0,0
458,60333251953125;	301,25;	0,0;	0,0
458,6477966308594;	281,25;	0,0;	0,0
458,6921081542969;	260,5;	0,0;	0,0
458,73651123046875;	227,0;	0,0;	0,0
458,78082275390625;	237,25;	0,0;	0,0
458,8251953125;	229,5;	0,0;	0,0
458,8695068359375;	262,0;	0,0;	0,0
458,9137878417969;	233,75;	0,0;	0,0
458,9580993652344;	243,5;	0,0;	0,0
459,00238037109375;	241,0;	0,0;	0,0
459,04669189453125;	209,75;	0,0;	0,0
459,0909423828125;	250,5;	0,0;	0,0
459,13519287109375;	230,25;	0,0;	0,0
459,179443359375;	252,75;	0,0;	0,0
459,22369384765625;	251,0;	0,0;	0,0
459,26788330078125;	261,25;	0,0;	0,0
459,3121032714844;	254,25;	0,0;	0,0
459,3562927246094;	238,0;	0,0;	0,0
459,4004821777344;	226,75;	0,0;	0,0
459,4446716308594;	234,5;	0,0;	0,0
459,48883056640625;	229,0;	0,0;	0,0
459,5329895019531;	240,5;	0,0;	0,0
459,5771179199219;	242,5;	0,0;	0,0
459,6212463378906;	266,75;	0,0;	0,0
459,66534423828125;	236,75;	0,0;	0,0
459,7094421386719;	252,5;	0,0;	0,0
459,7535705566406;	240,75;	0,0;	0,0
459,7976379394531;	240,75;	0,0;	0,0
459,8417053222656;	262,75;	0,0;	0,0
459,8857727050781;	264,25;	0,0;	0,0
459,9298095703125;	243,75;	0,0;	0,0
459,9738464355469;	232,75;	0,0;	0,0
460,01788330078125;	230,75;	0,0;	0,0
460,0618896484375;	231,75;	0,0;	0,0
460,1058654785156;	254,5;	0,0;	0,0
460,14990234375;	256,75;	0,0;	0,0
460,1938781738281;	258,25;	0,0;	0,0
460,2378234863281;	253,75;	0,0;	0,0
460,28179931640625;	271,25;	0,0;	0,0
460,32574462890625;	305,75;	0,0;	0,0
460,3696594238281;	270,25;	0,0;	0,0
460,41357421875;	234,0;	0,0;	0,0
460,4574890136719;	233,75;	0,0;	0,0
460,50140380859375;	250,5;	0,0;	0,0
460,5452575683594;	239,75;	0,0;	0,0
460,58917236328125;	243,0;	0,0;	0,0
460,63299560546875;	249,5;	0,0;	0,0
460,6768798828125;	269,75;	0,0;	0,0
460,7206726074219;	281,75;	0,0;	0,0
460,7645263671875;	276,75;	0,0;	0,0
460,808349609375;	264,5;	0,0;	0,0
460,8521728515625;	260,25;	0,0;	0,0
460,89593505859375;	232,75;	0,0;	0,0
460,93975830078125;	248,75;	0,0;	0,0
460,9834899902344;	252,25;	0,0;	0,0
461,0272521972656;	223,75;	0,0;	0,0
461,0710144042969;	241,5;	0,0;	0,0
461,11474609375;	271,75;	0,0;	0,0
461,158447265625;	278,25;	0,0;	0,0
461,2021789550781;	258,5;	0,0;	0,0
461,2458801269531;	257,25;	0,0;	0,0
461,28955078125;	251,25;	0,0;	0,0
461,333251953125;	255,25;	0,0;	0,0
461,3769226074219;	240,5;	0,0;	0,0
461,4205627441406;	233,75;	0,0;	0,0
461,4642028808594;	249,0;	0,0;	0,0
461,5078430175781;	237,0;	0,0;	0,0
461,55145263671875;	247,0;	0,0;	0,0
461,5950622558594;	239,75;	0,0;	0,0
461,638671875;	241,75;	0,0;	0,0
461,6822509765625;	226,0;	0,0;	0,0
461,7257995605469;	253,5;	0,0;	0,0
461,7693786621094;	242,5;	0,0;	0,0
461,81292724609375;	234,25;	0,0;	0,0
461,85650634765625;	231,75;	0,0;	0,0
461,8999938964844;	255,5;	0,0;	0,0
461,94354248046875;	266,75;	0,0;	0,0
461,9870300292969;	262,75;	0,0;	0,0
462,0304870605469;	239,5;	0,0;	0,0
462,0740051269531;	249,25;	0,0;	0,0
462,1174621582031;	237,25;	0,0;	0,0
462,1609191894531;	219,75;	0,0;	0,0
462,2043762207031;	230,25;	0,0;	0,0
462,247802734375;	234,75;	0,0;	0,0
462,2912292480469;	231,0;	0,0;	0,0
462,3346252441406;	236,0;	0,0;	0,0
462,3780517578125;	235,25;	0,0;	0,0
462,4214172363281;	247,5;	0,0;	0,0
462,4648132324219;	233,25;	0,0;	0,0
462,5081787109375;	242,0;	0,0;	0,0
462,551513671875;	262,0;	0,0;	0,0
462,5948791503906;	245,0;	0,0;	0,0
462,6382141113281;	246,75;	0,0;	0,0
462,6815185546875;	247,5;	0,0;	0,0
462,7248229980469;	215,5;	0,0;	0,0
462,76812744140625;	231,5;	0,0;	0,0
462,8113708496094;	240,5;	0,0;	0,0
462,85467529296875;	233,75;	0,0;	0,0
462,8979187011719;	224,25;	0,0;	0,0
462,9411926269531;	226,75;	0,0;	0,0
462,9844055175781;	242,75;	0,0;	0,0
463,0276184082031;	249,25;	0,0;	0,0
463,0708312988281;	230,25;	0,0;	0,0
463,1140441894531;	227,5;	0,0;	0,0
463,1572265625;	249,75;	0,0;	0,0
463,2004089355469;	255,25;	0,0;	0,0
463,24359130859375;	254,0;	0,0;	0,0
463,2867431640625;	233,5;	0,0;	0,0
463,32989501953125;	242,25;	0,0;	0,0
463,3730163574219;	233,25;	0,0;	0,0
463,4161376953125;	227,5;	0,0;	0,0
463,459228515625;	229,5;	0,0;	0,0
463,5023498535156;	219,25;	0,0;	0,0
463,5454406738281;	231,5;	0,0;	0,0
463,5885009765625;	241,0;	0,0;	0,0
463,6315612792969;	256,25;	0,0;	0,0
463,67462158203125;	254,25;	0,0;	0,0
463,7176513671875;	243,5;	0,0;	0,0
463,76068115234375;	265,75;	0,0;	0,0
463,8036804199219;	243,5;	0,0;	0,0
463,8467102050781;	241,0;	0,0;	0,0
463,8896789550781;	246,5;	0,0;	0,0
463,93267822265625;	240,75;	0,0;	0,0
463,9756164550781;	248,75;	0,0;	0,0
464,0186462402344;	228,25;	0,0;	0,0
464,0615234375;	248,5;	0,0;	0,0
464,1044921875;	242,25;	0,0;	0,0
464,14739990234375;	256,75;	0,0;	0,0
464,1903076171875;	229,25;	0,0;	0,0
464,2331848144531;	258,5;	0,0;	0,0
464,2760925292969;	237,75;	0,0;	0,0
464,3189697265625;	250,5;	0,0;	0,0
464,3618469238281;	258,75;	0,0;	0,0
464,4046936035156;	249,0;	0,0;	0,0
464,4475402832031;	251,75;	0,0;	0,0
464,4903869628906;	231,75;	0,0;	0,0
464,5331726074219;	253,25;	0,0;	0,0
464,57598876953125;	257,75;	0,0;	0,0
464,6188049316406;	250,0;	0,0;	0,0
464,66156005859375;	250,25;	0,0;	0,0
464,704345703125;	256,25;	0,0;	0,0
464,7471008300781;	264,0;	0,0;	0,0
464,78985595703125;	276,25;	0,0;	0,0
464,83258056640625;	257,5;	0,0;	0,0
464,8752746582031;	236,5;	0,0;	0,0
464,9179992675781;	237,0;	0,0;	0,0
464,9606628417969;	240,0;	0,0;	0,0
465,00341796875;	252,5;	0,0;	0,0
465,0460510253906;	255,25;	0,0;	0,0
465,0887145996094;	238,25;	0,0;	0,0
465,1313781738281;	244,0;	0,0;	0,0
465,17401123046875;	244,0;	0,0;	0,0
465,2166748046875;	235,75;	0,0;	0,0
465,2592468261719;	237,0;	0,0;	0,0
465,3018798828125;	237,5;	0,0;	0,0
465,344482421875;	251,0;	0,0;	0,0
465,3870544433594;	262,5;	0,0;	0,0
465,42962646484375;	254,75;	0,0;	0,0
465,4721984863281;	315,5;	0,0;	0,0
465,5147399902344;	257,75;	0,0;	0,0
465,5572814941406;	244,0;	0,0;	0,0
465,59979248046875;	258,75;	0,0;	0,0
465,6423034667969;	257,25;	0,0;	0,0
465,684814453125;	245,75;	0,0;	0,0
465,727294921875;	238,75;	0,0;	0,0
465,769775390625;	235,0;	0,0;	0,0
465,812255859375;	236,25;	0,0;	0,0
465,8547058105469;	244,5;	0,0;	0,0
465,89715576171875;	250,25;	0,0;	0,0
465,9395751953125;	240,75;	0,0;	0,0
465,98199462890625;	234,5;	0,0;	0,0
466,0243835449219;	251,5;	0,0;	0,0
466,0667724609375;	240,25;	0,0;	0,0
466,1091613769531;	238,5;	0,0;	0,0
466,15155029296875;	262,25;	0,0;	0,0
466,19390869140625;	257,75;	0,0;	0,0
466,2362365722656;	253,25;	0,0;	0,0
466,2785949707031;	234,0;	0,0;	0,0
466,3209228515625;	248,25;	0,0;	0,0
466,36322021484375;	243,5;	0,0;	0,0
466,4055480957031;	240,25;	0,0;	0,0
466,44781494140625;	231,5;	0,0;	0,0
466,4900817871094;	250,0;	0,0;	0,0
466,5323791503906;	254,5;	0,0;	0,0
466,5746154785156;	234,25;	0,0;	0,0
466,61688232421875;	260,0;	0,0;	0,0
466,6590881347656;	260,75;	0,0;	0,0
466,7013244628906;	272,5;	0,0;	0,0
466,7435302734375;	319,25;	0,0;	0,0
466,78570556640625;	283,5;	0,0;	0,0
466,8278503417969;	303,5;	0,0;	0,0
466,87005615234375;	284,25;	0,0;	0,0
466,9122009277344;	262,75;	0,0;	0,0
466,9543762207031;	260,0;	0,0;	0,0
466,9964904785156;	262,25;	0,0;	0,0
467,03863525390625;	274,75;	0,0;	0,0
467,08074951171875;	258,0;	0,0;	0,0
467,1228332519531;	253,25;	0,0;	0,0
467,1649169921875;	246,0;	0,0;	0,0
467,20703125;	239,5;	0,0;	0,0
467,24908447265625;	239,25;	0,0;	0,0
467,2911071777344;	277,0;	0,0;	0,0
467,33319091796875;	246,5;	0,0;	0,0
467,3752136230469;	246,0;	0,0;	0,0
467,4172058105469;	248,25;	0,0;	0,0
467,459228515625;	229,0;	0,0;	0,0
467,501220703125;	243,0;	0,0;	0,0
467,5431823730469;	255,75;	0,0;	0,0
467,5851745605469;	237,5;	0,0;	0,0
467,62713623046875;	256,0;	0,0;	0,0
467,6690979003906;	248,5;	0,0;	0,0
467,7110290527344;	264,5;	0,0;	0,0
467,7529602050781;	263,75;	0,0;	0,0
467,79486083984375;	241,75;	0,0;	0,0
467,8367614746094;	265,5;	0,0;	0,0
467,8786315917969;	303,25;	0,0;	0,0
467,9205322265625;	282,75;	0,0;	0,0
467,9623718261719;	260,75;	0,0;	0,0
468,0042419433594;	249,75;	0,0;	0,0
468,04608154296875;	251,75;	0,0;	0,0
468,087890625;	268,0;	0,0;	0,0
468,1297302246094;	247,25;	0,0;	0,0
468,1715393066406;	238,75;	0,0;	0,0
468,21331787109375;	256,75;	0,0;	0,0
468,2550964355469;	254,75;	0,0;	0,0
468,296875;	243,5;	0,0;	0,0
468,3386535644531;	240,5;	0,0;	0,0
468,38037109375;	239,25;	0,0;	0,0
468,422119140625;	239,75;	0,0;	0,0
468,4638366699219;	248,25;	0,0;	0,0
468,50555419921875;	228,25;	0,0;	0,0
468,5472412109375;	241,75;	0,0;	0,0
468,58892822265625;	252,5;	0,0;	0,0
468,630615234375;	233,75;	0,0;	0,0
468,6722717285156;	239,0;	0,0;	0,0
468,71392822265625;	230,5;	0,0;	0,0
468,75555419921875;	235,75;	0,0;	0,0
468,7972106933594;	244,25;	0,0;	0,0
468,83880615234375;	243,75;	0,0;	0,0
468,88043212890625;	256,5;	0,0;	0,0
468,9219665527344;	251,25;	0,0;	0,0
468,9635925292969;	246,75;	0,0;	0,0
469,0051574707031;	241,0;	0,0;	0,0
469,0467224121094;	258,25;	0,0;	0,0
469,0882263183594;	255,75;	0,0;	0,0
469,1297912597656;	239,0;	0,0;	0,0
469,1712951660156;	269,25;	0,0;	0,0
469,2127990722656;	268,5;	0,0;	0,0
469,2543029785156;	260,5;	0,0;	0,0
469,2958068847656;	260,25;	0,0;	0,0
469,3372802734375;	242,5;	0,0;	0,0
469,3787536621094;	239,0;	0,0;	0,0
469,4201965332031;	240,75;	0,0;	0,0
469,4616394042969;	243,75;	0,0;	0,0
469,5030517578125;	252,0;	0,0;	0,0
469,54449462890625;	249,25;	0,0;	0,0
469,58587646484375;	214,0;	0,0;	0,0
469,6272888183594;	243,75;	0,0;	0,0
469,66864013671875;	239,75;	0,0;	0,0
469,7099914550781;	262,5;	0,0;	0,0
469,7513732910156;	270,5;	0,0;	0,0
469,7926940917969;	256,5;	0,0;	0,0
469,83404541015625;	234,75;	0,0;	0,0
469,8753356933594;	254,75;	0,0;	0,0
469,91668701171875;	254,25;	0,0;	0,0
469,95794677734375;	240,75;	0,0;	0,0
469,999267578125;	250,75;	0,0;	0,0
470,0404968261719;	247,75;	0,0;	0,0
470,0817565917969;	238,75;	0,0;	0,0
470,12298583984375;	242,5;	0,0;	0,0
470,16424560546875;	249,25;	0,0;	0,0
470,2054748535156;	243,75;	0,0;	0,0
470,2467041015625;	233,75;	0,0;	0,0
470,28790283203125;	236,25;	0,0;	0,0
470,3290710449219;	236,25;	0,0;	0,0
470,3702392578125;	256,5;	0,0;	0,0
470,41143798828125;	242,75;	0,0;	0,0
470,4526062011719;	242,25;	0,0;	0,0
470,49371337890625;	264,0;	0,0;	0,0
470,53485107421875;	243,0;	0,0;	0,0
470,5759582519531;	250,25;	0,0;	0,0
470,6170959472656;	268,25;	0,0;	0,0
470,6581726074219;	271,5;	0,0;	0,0
470,6992492675781;	292,5;	0,0;	0,0
470,7403259277344;	294,5;	0,0;	0,0
470,7814025878906;	278,5;	0,0;	0,0
470,8223876953125;	251,0;	0,0;	0,0
470,86346435546875;	258,75;	0,0;	0,0
470,90447998046875;	254,75;	0,0;	0,0
470,94549560546875;	269,25;	0,0;	0,0
470,9864807128906;	280,75;	0,0;	0,0
471,0274658203125;	255,5;	0,0;	0,0
471,0684509277344;	253,25;	0,0;	0,0
471,1094055175781;	237,75;	0,0;	0,0
471,15032958984375;	239,5;	0,0;	0,0
471,1912841796875;	255,75;	0,0;	0,0
471,23223876953125;	232,25;	0,0;	0,0
471,27313232421875;	228,5;	0,0;	0,0
471,3140563964844;	238,25;	0,0;	0,0
471,35491943359375;	249,75;	0,0;	0,0
471,39581298828125;	237,25;	0,0;	0,0
471,4366455078125;	241,0;	0,0;	0,0
471,4775390625;	246,75;	0,0;	0,0
471,51837158203125;	236,5;	0,0;	0,0
471,5592041015625;	239,25;	0,0;	0,0
471,60003662109375;	247,0;	0,0;	0,0
471,6408386230469;	239,0;	0,0;	0,0
471,6816101074219;	232,75;	0,0;	0,0
471,722412109375;	230,25;	0,0;	0,0
471,7631530761719;	253,5;	0,0;	0,0
471,8039245605469;	253,5;	0,0;	0,0
471,84466552734375;	225,5;	0,0;	0,0
471,88543701171875;	254,75;	0,0;	0,0
471,9261169433594;	231,5;	0,0;	0,0
471,9668884277344;	243,75;	0,0;	0,0
472,0075378417969;	238,75;	0,0;	0,0
472,0482177734375;	243,75;	0,0;	0,0
472,0888977050781;	228,25;	0,0;	0,0
472,1295471191406;	252,25;	0,0;	0,0
472,17022705078125;	231,75;	0,0;	0,0
472,21087646484375;	262,25;	0,0;	0,0
472,25146484375;	242,25;	0,0;	0,0
472,2920837402344;	254,0;	0,0;	0,0
472,33270263671875;	248,5;	0,0;	0,0
472,373291015625;	229,75;	0,0;	0,0
472,41387939453125;	256,0;	0,0;	0,0
472,4544372558594;	251,5;	0,0;	0,0
472,4949951171875;	240,0;	0,0;	0,0
472,5355529785156;	226,25;	0,0;	0,0
472,5760803222656;	238,25;	0,0;	0,0
472,6166076660156;	246,5;	0,0;	0,0
472,6571044921875;	252,25;	0,0;	0,0
472,6976013183594;	260,5;	0,0;	0,0
472,7380676269531;	254,0;	0,0;	0,0
472,7785339355469;	273,5;	0,0;	0,0
472,81903076171875;	249,75;	0,0;	0,0
472,85943603515625;	266,5;	0,0;	0,0
472,89990234375;	265,75;	0,0;	0,0
472,9402770996094;	246,5;	0,0;	0,0
472,980712890625;	220,25;	0,0;	0,0
473,0211181640625;	251,25;	0,0;	0,0
473,0614929199219;	246,75;	0,0;	0,0
473,1018981933594;	233,75;	0,0;	0,0
473,1422424316406;	233,75;	0,0;	0,0
473,1826171875;	247,0;	0,0;	0,0
473,2229309082031;	242,0;	0,0;	0,0
473,26324462890625;	234,25;	0,0;	0,0
473,3035888671875;	227,75;	0,0;	0,0
473,3439025878906;	249,75;	0,0;	0,0
473,3841552734375;	229,0;	0,0;	0,0
473,4244689941406;	247,5;	0,0;	0,0
473,4647216796875;	265,0;	0,0;	0,0
473,5049743652344;	270,25;	0,0;	0,0
473,54522705078125;	276,75;	0,0;	0,0
473,58544921875;	299,0;	0,0;	0,0
473,62567138671875;	305,25;	0,0;	0,0
473,6658935546875;	333,0;	0,0;	0,0
473,7060546875;	330,5;	0,0;	0,0
473,7462463378906;	277,25;	0,0;	0,0
473,7864074707031;	256,5;	0,0;	0,0
473,82659912109375;	238,5;	0,0;	0,0
473,8667297363281;	241,0;	0,0;	0,0
473,9068298339844;	243,25;	0,0;	0,0
473,9469909667969;	253,5;	0,0;	0,0
473,9870910644531;	254,25;	0,0;	0,0
474,0271911621094;	259,25;	0,0;	0,0
474,0672607421875;	258,0;	0,0;	0,0
474,1073303222656;	234,0;	0,0;	0,0
474,14739990234375;	256,25;	0,0;	0,0
474,18743896484375;	263,0;	0,0;	0,0
474,22747802734375;	251,0;	0,0;	0,0
474,26751708984375;	245,5;	0,0;	0,0
474,30755615234375;	244,5;	0,0;	0,0
474,3475646972656;	263,0;	0,0;	0,0
474,3875427246094;	258,5;	0,0;	0,0
474,4275207519531;	245,5;	0,0;	0,0
474,4674987792969;	243,75;	0,0;	0,0
474,5074462890625;	253,75;	0,0;	0,0
474,5473937988281;	244,0;	0,0;	0,0
474,5873107910156;	253,25;	0,0;	0,0
474,627197265625;	250,75;	0,0;	0,0
474,6671447753906;	252,25;	0,0;	0,0
474,7070007324219;	262,75;	0,0;	0,0
474,7469177246094;	262,5;	0,0;	0,0
474,7867431640625;	250,0;	0,0;	0,0
474,82666015625;	244,75;	0,0;	0,0
474,8664855957031;	254,5;	0,0;	0,0
474,9062805175781;	253,75;	0,0;	0,0
474,9461364746094;	236,25;	0,0;	0,0
474,98590087890625;	262,5;	0,0;	0,0
475,0257263183594;	257,75;	0,0;	0,0
475,0655212402344;	261,75;	0,0;	0,0
475,1053161621094;	261,75;	0,0;	0,0
475,1450500488281;	244,0;	0,0;	0,0
475,184814453125;	250,25;	0,0;	0,0
475,22454833984375;	236,75;	0,0;	0,0
475,2642517089844;	251,75;	0,0;	0,0
475,3039855957031;	249,75;	0,0;	0,0
475,34368896484375;	264,0;	0,0;	0,0
475,38336181640625;	275,5;	0,0;	0,0
475,42303466796875;	259,25;	0,0;	0,0
475,46270751953125;	257,25;	0,0;	0,0
475,5023498535156;	243,75;	0,0;	0,0
475,5419921875;	239,5;	0,0;	0,0
475,5816345214844;	259,25;	0,0;	0,0
475,6212158203125;	245,5;	0,0;	0,0
475,6608581542969;	251,5;	0,0;	0,0
475,7004089355469;	231,75;	0,0;	0,0
475,7400207519531;	239,75;	0,0;	0,0
475,7795715332031;	250,0;	0,0;	0,0
475,8191223144531;	240,25;	0,0;	0,0
475,8586730957031;	243,75;	0,0;	0,0
475,898193359375;	238,75;	0,0;	0,0
475,9377136230469;	237,25;	0,0;	0,0
475,9772033691406;	258,5;	0,0;	0,0
476,0167236328125;	252,0;	0,0;	0,0
476,0561828613281;	257,25;	0,0;	0,0
476,0956726074219;	231,75;	0,0;	0,0
476,1351318359375;	254,0;	0,0;	0,0
476,1745910644531;	263,25;	0,0;	0,0
476,2140197753906;	257,0;	0,0;	0,0
476,2534484863281;	265,5;	0,0;	0,0
476,2928466796875;	260,25;	0,0;	0,0
476,3322448730469;	255,5;	0,0;	0,0
476,3716125488281;	239,5;	0,0;	0,0
476,4110107421875;	262,0;	0,0;	0,0
476,4503479003906;	250,75;	0,0;	0,0
476,4897155761719;	227,5;	0,0;	0,0
476,52899169921875;	265,75;	0,0;	0,0
476,5683898925781;	266,25;	0,0;	0,0
476,607666015625;	262,5;	0,0;	0,0
476,64697265625;	260,25;	0,0;	0,0
476,6862487792969;	258,25;	0,0;	0,0
476,7255554199219;	252,75;	0,0;	0,0
476,7647705078125;	248,0;	0,0;	0,0
476,8040466308594;	250,75;	0,0;	0,0
476,8432922363281;	264,5;	0,0;	0,0
476,88250732421875;	262,0;	0,0;	0,0
476,9217224121094;	221,75;	0,0;	0,0
476,9609069824219;	252,5;	0,0;	0,0
477,0001220703125;	244,75;	0,0;	0,0
477,0392761230469;	227,75;	0,0;	0,0
477,0784606933594;	242,0;	0,0;	0,0
477,1176452636719;	255,25;	0,0;	0,0
477,1567687988281;	269,75;	0,0;	0,0
477,1958923339844;	234,25;	0,0;	0,0
477,2350158691406;	234,75;	0,0;	0,0
477,27410888671875;	265,5;	0,0;	0,0
477,3132019042969;	252,5;	0,0;	0,0
477,352294921875;	240,75;	0,0;	0,0
477,3913879394531;	244,0;	0,0;	0,0
477,4303894042969;	262,25;	0,0;	0,0
477,469482421875;	229,75;	0,0;	0,0
477,50848388671875;	248,25;	0,0;	0,0
477,5475158691406;	235,75;	0,0;	0,0
477,58648681640625;	246,5;	0,0;	0,0
477,62554931640625;	235,5;	0,0;	0,0
477,66448974609375;	240,25;	0,0;	0,0
477,70343017578125;	245,5;	0,0;	0,0
477,7424011230469;	243,75;	0,0;	0,0
477,7813415527344;	243,75;	0,0;	0,0
477,8203125;	240,75;	0,0;	0,0
477,85919189453125;	239,0;	0,0;	0,0
477,89813232421875;	246,75;	0,0;	0,0
477,93701171875;	238,25;	0,0;	0,0
477,9759216308594;	249,25;	0,0;	0,0
478,0147705078125;	236,75;	0,0;	0,0
478,05364990234375;	254,5;	0,0;	0,0
478,092529296875;	233,25;	0,0;	0,0
478,13134765625;	254,5;	0,0;	0,0
478,170166015625;	250,0;	0,0;	0,0
478,2089538574219;	248,75;	0,0;	0,0
478,2477722167969;	243,25;	0,0;	0,0
478,28656005859375;	264,0;	0,0;	0,0
478,3253479003906;	264,75;	0,0;	0,0
478,3641052246094;	255,5;	0,0;	0,0
478,4028625488281;	251,25;	0,0;	0,0
478,4416198730469;	243,5;	0,0;	0,0
478,48028564453125;	241,0;	0,0;	0,0
478,51904296875;	247,25;	0,0;	0,0
478,5577392578125;	255,75;	0,0;	0,0
478,596435546875;	242,5;	0,0;	0,0
478,6351013183594;	266,25;	0,0;	0,0
478,6737365722656;	280,5;	0,0;	0,0
478,71240234375;	250,0;	0,0;	0,0
478,7510681152344;	241,75;	0,0;	0,0
478,7897033691406;	246,25;	0,0;	0,0
478,82830810546875;	246,5;	0,0;	0,0
478,8669128417969;	275,75;	0,0;	0,0
478,9054870605469;	252,0;	0,0;	0,0
478,9440612792969;	253,75;	0,0;	0,0
478,982666015625;	252,5;	0,0;	0,0
479,0212097167969;	233,25;	0,0;	0,0
479,05975341796875;	240,25;	0,0;	0,0
479,0982971191406;	261,0;	0,0;	0,0
479,1368103027344;	237,75;	0,0;	0,0
479,17529296875;	260,75;	0,0;	0,0
479,21380615234375;	262,0;	0,0;	0,0
479,2522888183594;	245,5;	0,0;	0,0
479,29071044921875;	262,5;	0,0;	0,0
479,3292236328125;	241,25;	0,0;	0,0
479,3676452636719;	236,75;	0,0;	0,0
479,4060974121094;	234,5;	0,0;	0,0
479,44451904296875;	230,25;	0,0;	0,0
479,4829406738281;	249,75;	0,0;	0,0
479,52130126953125;	246,5;	0,0;	0,0
479,5596923828125;	246,25;	0,0;	0,0
479,59808349609375;	240,25;	0,0;	0,0
479,63641357421875;	244,0;	0,0;	0,0
479,6747741699219;	227,25;	0,0;	0,0
479,7131042480469;	247,75;	0,0;	0,0
479,7514343261719;	244,5;	0,0;	0,0
479,7897644042969;	266,5;	0,0;	0,0
479,8280334472656;	245,5;	0,0;	0,0
479,8663330078125;	252,5;	0,0;	0,0
479,9045715332031;	247,25;	0,0;	0,0
479,9428405761719;	236,25;	0,0;	0,0
479,9811096191406;	241,25;	0,0;	0,0
480,01934814453125;	254,25;	0,0;	0,0
480,05755615234375;	250,75;	0,0;	0,0
480,0957946777344;	232,5;	0,0;	0,0
480,1340026855469;	252,5;	0,0;	0,0
480,17218017578125;	250,5;	0,0;	0,0
480,2103576660156;	251,5;	0,0;	0,0
480,24847412109375;	232,75;	0,0;	0,0
480,28668212890625;	260,75;	0,0;	0,0
480,3247985839844;	237,75;	0,0;	0,0
480,3629455566406;	249,75;	0,0;	0,0
480,4010314941406;	232,75;	0,0;	0,0
480,4391174316406;	235,25;	0,0;	0,0
480,4772033691406;	254,25;	0,0;	0,0
480,5152893066406;	242,75;	0,0;	0,0
480,5533447265625;	241,25;	0,0;	0,0
480,5914001464844;	238,25;	0,0;	0,0
480,62945556640625;	231,0;	0,0;	0,0
480,66748046875;	235,5;	0,0;	0,0
480,7054748535156;	248,75;	0,0;	0,0
480,7434997558594;	246,0;	0,0;	0,0
480,781494140625;	250,0;	0,0;	0,0
480,8194580078125;	243,0;	0,0;	0,0
480,857421875;	259,75;	0,0;	0,0
480,8953857421875;	237,25;	0,0;	0,0
480,9333190917969;	256,0;	0,0;	0,0
480,9712829589844;	267,0;	0,0;	0,0
481,0091552734375;	268,5;	0,0;	0,0
481,0470886230469;	254,75;	0,0;	0,0
481,0849914550781;	266,5;	0,0;	0,0
481,1228332519531;	260,5;	0,0;	0,0
481,16070556640625;	253,5;	0,0;	0,0
481,1985778808594;	221,75;	0,0;	0,0
481,2364196777344;	218,75;	0,0;	0,0
481,27423095703125;	242,25;	0,0;	0,0
481,3120422363281;	248,25;	0,0;	0,0
481,349853515625;	239,75;	0,0;	0,0
481,3876647949219;	255,75;	0,0;	0,0
481,4254150390625;	240,75;	0,0;	0,0
481,46319580078125;	247,0;	0,0;	0,0
481,5009765625;	249,0;	0,0;	0,0
481,5386962890625;	253,25;	0,0;	0,0
481,576416015625;	223,75;	0,0;	0,0
481,6141662597656;	236,25;	0,0;	0,0
481,65185546875;	240,0;	0,0;	0,0
481,6895446777344;	227,0;	0,0;	0,0
481,72723388671875;	238,5;	0,0;	0,0
481,764892578125;	256,75;	0,0;	0,0
481,8025817871094;	264,0;	0,0;	0,0
481,8402099609375;	249,0;	0,0;	0,0
481,8778381347656;	238,0;	0,0;	0,0
481,91546630859375;	247,25;	0,0;	0,0
481,95306396484375;	233,75;	0,0;	0,0
481,99066162109375;	239,5;	0,0;	0,0
482,02825927734375;	242,5;	0,0;	0,0
482,0658264160156;	239,5;	0,0;	0,0
482,1033935546875;	250,0;	0,0;	0,0
482,1408996582031;	243,25;	0,0;	0,0
482,178466796875;	238,75;	0,0;	0,0
482,2159729003906;	267,25;	0,0;	0,0
482,2534484863281;	271,25;	0,0;	0,0
482,29095458984375;	254,0;	0,0;	0,0
482,3284606933594;	276,0;	0,0;	0,0
482,36590576171875;	296,25;	0,0;	0,0
482,40338134765625;	271,0;	0,0;	0,0
482,4408264160156;	241,5;	0,0;	0,0
482,478271484375;	249,5;	0,0;	0,0
482,5157165527344;	249,0;	0,0;	0,0
482,5531005859375;	244,0;	0,0;	0,0
482,59051513671875;	219,0;	0,0;	0,0
482,6278991699219;	250,75;	0,0;	0,0
482,6652526855469;	235,25;	0,0;	0,0
482,7026062011719;	247,0;	0,0;	0,0
482,739990234375;	255,5;	0,0;	0,0
482,77728271484375;	255,0;	0,0;	0,0
482,81463623046875;	235,25;	0,0;	0,0
482,8519287109375;	251,0;	0,0;	0,0
482,8892517089844;	261,5;	0,0;	0,0
482,926513671875;	240,25;	0,0;	0,0
482,96380615234375;	243,0;	0,0;	0,0
483,00103759765625;	239,5;	0,0;	0,0
483,038330078125;	248,5;	0,0;	0,0
483,0755310058594;	255,75;	0,0;	0,0
483,1127624511719;	246,0;	0,0;	0,0
483,14996337890625;	241,5;	0,0;	0,0
483,1871643066406;	245,75;	0,0;	0,0
483,2243347167969;	255,75;	0,0;	0,0
483,26153564453125;	229,25;	0,0;	0,0
483,2986755371094;	231,0;	0,0;	0,0
483,3358154296875;	237,75;	0,0;	0,0
483,3729553222656;	231,25;	0,0;	0,0
483,41009521484375;	254,25;	0,0;	0,0
483,44720458984375;	239,0;	0,0;	0,0
483,48431396484375;	261,5;	0,0;	0,0
483,5213928222656;	248,75;	0,0;	0,0
483,5584716796875;	231,5;	0,0;	0,0
483,59552001953125;	245,5;	0,0;	0,0
483,6325988769531;	262,5;	0,0;	0,0
483,66961669921875;	265,25;	0,0;	0,0
483,7066650390625;	251,25;	0,0;	0,0
483,7436828613281;	240,75;	0,0;	0,0
483,7806396484375;	250,75;	0,0;	0,0
483,8176574707031;	245,75;	0,0;	0,0
483,8546142578125;	263,0;	0,0;	0,0
483,8916015625;	262,0;	0,0;	0,0
483,92852783203125;	267,25;	0,0;	0,0
483,9654541015625;	257,75;	0,0;	0,0
484,00238037109375;	250,75;	0,0;	0,0
484,0392761230469;	258,0;	0,0;	0,0
484,0762023925781;	251,0;	0,0;	0,0
484,1130676269531;	252,0;	0,0;	0,0
484,14996337890625;	248,75;	0,0;	0,0
484,1867980957031;	253,75;	0,0;	0,0
484,22369384765625;	264,5;	0,0;	0,0
484,260498046875;	262,0;	0,0;	0,0
484,2973327636719;	259,0;	0,0;	0,0
484,33416748046875;	248,25;	0,0;	0,0
484,3709716796875;	250,25;	0,0;	0,0
484,4077453613281;	264,75;	0,0;	0,0
484,44451904296875;	273,5;	0,0;	0,0
484,4812927246094;	262,0;	0,0;	0,0
484,5180358886719;	276,0;	0,0;	0,0
484,5547790527344;	244,5;	0,0;	0,0
484,59149169921875;	251,25;	0,0;	0,0
484,628173828125;	232,25;	0,0;	0,0
484,6649169921875;	240,0;	0,0;	0,0
484,7015686035156;	261,0;	0,0;	0,0
484,7383117675781;	252,25;	0,0;	0,0
484,77490234375;	250,0;	0,0;	0,0
484,8116149902344;	264,0;	0,0;	0,0
484,84820556640625;	264,5;	0,0;	0,0
484,8848571777344;	246,0;	0,0;	0,0
484,92144775390625;	250,0;	0,0;	0,0
484,9580383300781;	258,0;	0,0;	0,0
484,9946594238281;	250,0;	0,0;	0,0
485,03125;	254,25;	0,0;	0,0
485,06781005859375;	229,0;	0,0;	0,0
485,1043395996094;	251,0;	0,0;	0,0
485,140869140625;	245,0;	0,0;	0,0
485,1773986816406;	252,5;	0,0;	0,0
485,2138977050781;	270,0;	0,0;	0,0
485,25042724609375;	268,0;	0,0;	0,0
485,2868957519531;	271,5;	0,0;	0,0
485,3233947753906;	255,0;	0,0;	0,0
485,35986328125;	264,75;	0,0;	0,0
485,39630126953125;	259,5;	0,0;	0,0
485,4327392578125;	274,5;	0,0;	0,0
485,46917724609375;	254,25;	0,0;	0,0
485,5055847167969;	276,5;	0,0;	0,0
485,54193115234375;	267,75;	0,0;	0,0
485,578369140625;	263,75;	0,0;	0,0
485,61474609375;	272,75;	0,0;	0,0
485,651123046875;	258,0;	0,0;	0,0
485,68743896484375;	258,75;	0,0;	0,0
485,7237854003906;	276,75;	0,0;	0,0
485,7601013183594;	294,25;	0,0;	0,0
485,7964172363281;	298,75;	0,0;	0,0
485,83270263671875;	313,5;	0,0;	0,0
485,8690185546875;	321,75;	0,0;	0,0
485,9053039550781;	318,75;	0,0;	0,0
485,9415588378906;	352,5;	0,0;	0,0
485,977783203125;	381,25;	0,0;	0,0
486,0140380859375;	331,75;	0,0;	0,0
486,0502624511719;	253,75;	0,0;	0,0
486,0864562988281;	261,75;	0,0;	0,0
486,1226806640625;	266,75;	0,0;	0,0
486,15887451171875;	262,0;	0,0;	0,0
486,1950378417969;	256,75;	0,0;	0,0
486,231201171875;	262,25;	0,0;	0,0
486,2673645019531;	252,25;	0,0;	0,0
486,3034973144531;	252,75;	0,0;	0,0
486,3396301269531;	252,5;	0,0;	0,0
486,3757019042969;	264,25;	0,0;	0,0
486,4118347167969;	282,5;	0,0;	0,0
486,4479064941406;	256,0;	0,0;	0,0
486,4840087890625;	254,75;	0,0;	0,0
486,52001953125;	251,75;	0,0;	0,0
486,55609130859375;	242,5;	0,0;	0,0
486,59210205078125;	263,75;	0,0;	0,0
486,6281433105469;	255,5;	0,0;	0,0
486,6641540527344;	264,25;	0,0;	0,0
486,7001647949219;	271,75;	0,0;	0,0
486,7361755371094;	259,75;	0,0;	0,0
486,7721252441406;	265,25;	0,0;	0,0
486,80810546875;	267,75;	0,0;	0,0
486,8440246582031;	281,5;	0,0;	0,0
486,8799743652344;	295,25;	0,0;	0,0
486,9158935546875;	318,75;	0,0;	0,0
486,9518127441406;	374,0;	0,0;	0,0
486,98773193359375;	398,75;	0,0;	0,0
487,0235900878906;	400,25;	0,0;	0,0
487,0594787597656;	450,5;	0,0;	0,0
487,0953369140625;	487,75;	0,0;	0,0
487,1311950683594;	636,0;	0,0;	0,0
487,1670227050781;	533,75;	0,0;	0,0
487,20281982421875;	450,5;	0,0;	0,0
487,2386474609375;	431,25;	0,0;	0,0
487,2744140625;	314,25;	0,0;	0,0
487,31024169921875;	272,5;	0,0;	0,0
487,3459777832031;	272,25;	0,0;	0,0
487,38177490234375;	267,75;	0,0;	0,0
487,41748046875;	252,5;	0,0;	0,0
487,4532470703125;	272,0;	0,0;	0,0
487,48895263671875;	254,75;	0,0;	0,0
487,524658203125;	266,5;	0,0;	0,0
487,56036376953125;	260,75;	0,0;	0,0
487,5960693359375;	289,75;	0,0;	0,0
487,6317138671875;	287,5;	0,0;	0,0
487,6673889160156;	323,75;	0,0;	0,0
487,7030029296875;	313,75;	0,0;	0,0
487,7386474609375;	296,25;	0,0;	0,0
487,7742919921875;	339,25;	0,0;	0,0
487,8099060058594;	380,25;	0,0;	0,0
487,84552001953125;	358,25;	0,0;	0,0
487,8810729980469;	294,75;	0,0;	0,0
487,9166564941406;	244,5;	0,0;	0,0
487,95220947265625;	272,5;	0,0;	0,0
487,9877624511719;	275,5;	0,0;	0,0
488,0232849121094;	260,5;	0,0;	0,0
488,0588073730469;	263,25;	0,0;	0,0
488,09429931640625;	259,75;	0,0;	0,0
488,12982177734375;	262,75;	0,0;	0,0
488,165283203125;	269,25;	0,0;	0,0
488,2007751464844;	259,75;	0,0;	0,0
488,2362060546875;	272,5;	0,0;	0,0
488,27166748046875;	258,75;	0,0;	0,0
488,30706787109375;	261,75;	0,0;	0,0
488,3424987792969;	243,0;	0,0;	0,0
488,3779296875;	280,75;	0,0;	0,0
488,4132995605469;	263,75;	0,0;	0,0
488,4486999511719;	280,75;	0,0;	0,0
488,48406982421875;	266,75;	0,0;	0,0
488,5194091796875;	277,0;	0,0;	0,0
488,55474853515625;	283,25;	0,0;	0,0
488,590087890625;	291,25;	0,0;	0,0
488,62542724609375;	246,75;	0,0;	0,0
488,66070556640625;	290,25;	0,0;	0,0
488,69598388671875;	260,0;	0,0;	0,0
488,7312927246094;	282,0;	0,0;	0,0
488,7665710449219;	291,5;	0,0;	0,0
488,80181884765625;	284,75;	0,0;	0,0
488,8370666503906;	351,0;	0,0;	0,0
488,8722839355469;	371,5;	0,0;	0,0
488,907470703125;	402,5;	0,0;	0,0
488,94268798828125;	447,75;	0,0;	0,0
488,9778747558594;	500,75;	0,0;	0,0
489,0130615234375;	524,5;	0,0;	0,0
489,0482177734375;	604,25;	0,0;	0,0
489,0834045410156;	763,75;	0,0;	0,0
489,1184997558594;	695,25;	0,0;	0,0
489,15362548828125;	816,75;	0,0;	0,0
489,1887512207031;	583,75;	0,0;	0,0
489,2238464355469;	360,0;	0,0;	0,0
489,2589416503906;	288,75;	0,0;	0,0
489,2940368652344;	255,0;	0,0;	0,0
489,3290710449219;	260,25;	0,0;	0,0
489,3641662597656;	253,25;	0,0;	0,0
489,399169921875;	249,0;	0,0;	0,0
489,4342346191406;	257,75;	0,0;	0,0
489,46923828125;	255,5;	0,0;	0,0
489,5042419433594;	251,0;	0,0;	0,0
489,5392150878906;	271,0;	0,0;	0,0
489,57421875;	263,0;	0,0;	0,0
489,6091613769531;	242,75;	0,0;	0,0
489,6441345214844;	250,75;	0,0;	0,0
489,6790466308594;	228,5;	0,0;	0,0
489,7139892578125;	243,0;	0,0;	0,0
489,7489013671875;	263,5;	0,0;	0,0
489,78375244140625;	241,75;	0,0;	0,0
489,8186950683594;	235,25;	0,0;	0,0
489,8535461425781;	260,75;	0,0;	0,0
489,888427734375;	245,0;	0,0;	0,0
489,9232482910156;	242,25;	0,0;	0,0
489,9580993652344;	248,75;	0,0;	0,0
489,9928894042969;	266,5;	0,0;	0,0
490,0277099609375;	241,75;	0,0;	0,0
490,0625305175781;	262,0;	0,0;	0,0
490,0972900390625;	269,5;	0,0;	0,0
490,132080078125;	259,25;	0,0;	0,0
490,1668395996094;	255,75;	0,0;	0,0
490,20159912109375;	275,25;	0,0;	0,0
490,236328125;	270,0;	0,0;	0,0
490,27105712890625;	277,75;	0,0;	0,0
490,3057556152344;	300,0;	0,0;	0,0
490,3404541015625;	341,25;	0,0;	0,0
490,3751525878906;	294,0;	0,0;	0,0
490,4097900390625;	262,0;	0,0;	0,0
490,4444580078125;	237,25;	0,0;	0,0
490,4790954589844;	255,0;	0,0;	0,0
490,51373291015625;	241,5;	0,0;	0,0
490,5483703613281;	229,5;	0,0;	0,0
490,58294677734375;	232,5;	0,0;	0,0
490,6175842285156;	248,5;	0,0;	0,0
490,652099609375;	247,0;	0,0;	0,0
490,68670654296875;	256,75;	0,0;	0,0
490,72125244140625;	253,75;	0,0;	0,0
490,75579833984375;	245,25;	0,0;	0,0
490,79034423828125;	251,25;	0,0;	0,0
490,8248291015625;	250,0;	0,0;	0,0
490,8593444824219;	255,75;	0,0;	0,0
490,89385986328125;	262,25;	0,0;	0,0
490,9283447265625;	265,0;	0,0;	0,0
490,9627685546875;	257,0;	0,0;	0,0
490,99725341796875;	292,5;	0,0;	0,0
491,03167724609375;	272,75;	0,0;	0,0
491,0661315917969;	279,5;	0,0;	0,0
491,10052490234375;	239,5;	0,0;	0,0
491,13494873046875;	243,0;	0,0;	0,0
491,1693115234375;	247,75;	0,0;	0,0
491,2037048339844;	243,75;	0,0;	0,0
491,238037109375;	269,75;	0,0;	0,0
491,2724304199219;	239,25;	0,0;	0,0
491,3067321777344;	240,0;	0,0;	0,0
491,3410949707031;	247,25;	0,0;	0,0
491,3753967285156;	245,75;	0,0;	0,0
491,4096984863281;	255,25;	0,0;	0,0
491,4439697265625;	232,5;	0,0;	0,0
491,478271484375;	249,5;	0,0;	0,0
491,51251220703125;	243,5;	0,0;	0,0
491,5467834472656;	260,25;	0,0;	0,0
491,58099365234375;	268,0;	0,0;	0,0
491,6152648925781;	272,25;	0,0;	0,0
491,6494445800781;	261,75;	0,0;	0,0
491,6836853027344;	333,75;	0,0;	0,0
491,71783447265625;	323,0;	0,0;	0,0
491,75201416015625;	366,0;	0,0;	0,0
491,7861633300781;	404,0;	0,0;	0,0
491,8203430175781;	479,25;	0,0;	0,0
491,85443115234375;	565,75;	0,0;	0,0
491,8885498046875;	662,0;	0,0;	0,0
491,9226989746094;	758,5;	0,0;	0,0
491,9568176269531;	680,5;	0,0;	0,0
491,9908752441406;	572,0;	0,0;	0,0
492,02490234375;	674,25;	0,0;	0,0
492,0589904785156;	929,0;	0,0;	0,0
492,093017578125;	719,25;	0,0;	0,0
492,1270751953125;	380,25;	0,0;	0,0
492,1610412597656;	316,5;	0,0;	0,0
492,1950988769531;	297,0;	0,0;	0,0
492,22906494140625;	306,5;	0,0;	0,0
492,2630615234375;	265,0;	0,0;	0,0
492,2969970703125;	280,0;	0,0;	0,0
492,33099365234375;	288,25;	0,0;	0,0
492,36492919921875;	284,0;	0,0;	0,0
492,39886474609375;	301,25;	0,0;	0,0
492,4327697753906;	292,0;	0,0;	0,0
492,4666748046875;	240,5;	0,0;	0,0
492,5005798339844;	268,0;	0,0;	0,0
492,5344543457031;	245,0;	0,0;	0,0
492,56829833984375;	228,5;	0,0;	0,0
492,60211181640625;	254,0;	0,0;	0,0
492,635986328125;	267,75;	0,0;	0,0
492,66986083984375;	253,0;	0,0;	0,0
492,7036437988281;	239,5;	0,0;	0,0
492,7373962402344;	235,75;	0,0;	0,0
492,771240234375;	251,0;	0,0;	0,0
492,8049621582031;	260,25;	0,0;	0,0
492,8387451171875;	250,5;	0,0;	0,0
492,87249755859375;	240,75;	0,0;	0,0
492,90625;	233,25;	0,0;	0,0
492,93994140625;	249,5;	0,0;	0,0
492,97369384765625;	259,0;	0,0;	0,0
493,00738525390625;	246,25;	0,0;	0,0
493,04107666015625;	237,75;	0,0;	0,0
493,0747375488281;	259,0;	0,0;	0,0
493,1083984375;	261,75;	0,0;	0,0
493,14202880859375;	241,5;	0,0;	0,0
493,1756896972656;	274,5;	0,0;	0,0
493,20928955078125;	259,25;	0,0;	0,0
493,242919921875;	267,5;	0,0;	0,0
493,2764892578125;	268,75;	0,0;	0,0
493,31011962890625;	271,75;	0,0;	0,0
493,3436584472656;	288,75;	0,0;	0,0
493,3772277832031;	282,0;	0,0;	0,0
493,4107360839844;	278,25;	0,0;	0,0
493,4442443847656;	296,25;	0,0;	0,0
493,4778137207031;	269,75;	0,0;	0,0
493,5113525390625;	256,75;	0,0;	0,0
493,5447998046875;	253,0;	0,0;	0,0
493,5782470703125;	235,5;	0,0;	0,0
493,61175537109375;	250,0;	0,0;	0,0
493,6451721191406;	0,0;	0,0;	0,0
