0.0	0.0
Integration time [ms]:	1.05
Averaging Nr. [scans]:1
Smoothing Nr. [pixels]:0
Data measured with spectrometer [name]:b'1703272U8'
Wave	;Sample	;Dark	;Reference	;Scope	
[nm]	;[counts]	;[counts]	;[counts]	
 
177,84457397460938;	203,5;	0,0;	0,0
177,88824462890625;	201,75;	0,0;	0,0
177,931884765625;	190,0;	0,0;	0,0
177,9755401611328;	177,0;	0,0;	0,0
178,01918029785156;	184,5;	0,0;	0,0
178,06283569335938;	166,25;	0,0;	0,0
178,10646057128906;	186,25;	0,0;	0,0
178,15008544921875;	179,5;	0,0;	0,0
178,19371032714844;	213,5;	0,0;	0,0
178,23733520507812;	194,75;	0,0;	0,0
178,28094482421875;	197,0;	0,0;	0,0
178,32455444335938;	182,0;	0,0;	0,0
178,3681640625;	200,25;	0,0;	0,0
178,4117431640625;	166,25;	0,0;	0,0
178,45535278320312;	194,25;	0,0;	0,0
178,49893188476562;	188,5;	0,0;	0,0
178,54251098632812;	175,0;	0,0;	0,0
178,58609008789062;	190,5;	0,0;	0,0
178,62965393066406;	198,5;	0,0;	0,0
178,6732177734375;	168,5;	0,0;	0,0
178,71678161621094;	174,75;	0,0;	0,0
178,76034545898438;	182,0;	0,0;	0,0
178,8038787841797;	183,25;	0,0;	0,0
178,84744262695312;	184,25;	0,0;	0,0
178,89096069335938;	179,75;	0,0;	0,0
178,93450927734375;	182,25;	0,0;	0,0
178,97802734375;	190,5;	0,0;	0,0
179,0215606689453;	184,5;	0,0;	0,0
179,0650634765625;	200,5;	0,0;	0,0
179,10858154296875;	191,75;	0,0;	0,0
179,15208435058594;	176,0;	0,0;	0,0
179,19558715820312;	167,25;	0,0;	0,0
179,2390899658203;	199,25;	0,0;	0,0
179,28257751464844;	183,25;	0,0;	0,0
179,32606506347656;	188,25;	0,0;	0,0
179,36953735351562;	186,5;	0,0;	0,0
179,41302490234375;	194,5;	0,0;	0,0
179,4564666748047;	201,0;	0,0;	0,0
179,49993896484375;	191,5;	0,0;	0,0
179,5433807373047;	194,0;	0,0;	0,0
179,5868377685547;	180,75;	0,0;	0,0
179,6302947998047;	190,25;	0,0;	0,0
179,67373657226562;	172,5;	0,0;	0,0
179,71717834472656;	194,25;	0,0;	0,0
179,76060485839844;	184,0;	0,0;	0,0
179,8040313720703;	198,25;	0,0;	0,0
179,84744262695312;	190,0;	0,0;	0,0
179,890869140625;	194,75;	0,0;	0,0
179,93426513671875;	186,0;	0,0;	0,0
179,97769165039062;	200,5;	0,0;	0,0
180,0210723876953;	202,0;	0,0;	0,0
180,06448364257812;	191,5;	0,0;	0,0
180,10787963867188;	175,25;	0,0;	0,0
180,15122985839844;	182,0;	0,0;	0,0
180,1946258544922;	178,25;	0,0;	0,0
180,2379913330078;	195,5;	0,0;	0,0
180,28135681152344;	174,75;	0,0;	0,0
180,32470703125;	192,0;	0,0;	0,0
180,36807250976562;	181,0;	0,0;	0,0
180,4114227294922;	208,5;	0,0;	0,0
180,45477294921875;	179,75;	0,0;	0,0
180,49810791015625;	193,25;	0,0;	0,0
180,54144287109375;	179,0;	0,0;	0,0
180,58477783203125;	182,0;	0,0;	0,0
180,62808227539062;	194,25;	0,0;	0,0
180,67141723632812;	185,25;	0,0;	0,0
180,7147216796875;	192,5;	0,0;	0,0
180,75804138183594;	191,0;	0,0;	0,0
180,80133056640625;	173,5;	0,0;	0,0
180,84463500976562;	184,0;	0,0;	0,0
180,88790893554688;	182,5;	0,0;	0,0
180,9311981201172;	185,25;	0,0;	0,0
180,9744873046875;	191,0;	0,0;	0,0
181,01776123046875;	195,25;	0,0;	0,0
181,06103515625;	182,0;	0,0;	0,0
181,1042938232422;	169,75;	0,0;	0,0
181,14755249023438;	188,0;	0,0;	0,0
181,1907958984375;	184,0;	0,0;	0,0
181,2340545654297;	192,0;	0,0;	0,0
181,2772979736328;	188,5;	0,0;	0,0
181,32054138183594;	196,25;	0,0;	0,0
181,36375427246094;	172,5;	0,0;	0,0
181,406982421875;	185,0;	0,0;	0,0
181,45021057128906;	182,5;	0,0;	0,0
181,49342346191406;	191,25;	0,0;	0,0
181,53665161132812;	196,0;	0,0;	0,0
181,579833984375;	187,75;	0,0;	0,0
181,623046875;	187,5;	0,0;	0,0
181,66622924804688;	186,25;	0,0;	0,0
181,7094268798828;	184,5;	0,0;	0,0
181,75259399414062;	178,0;	0,0;	0,0
181,7957763671875;	176,25;	0,0;	0,0
181,8389434814453;	197,25;	0,0;	0,0
181,8821258544922;	187,0;	0,0;	0,0
181,92527770996094;	191,75;	0,0;	0,0
181,9684295654297;	188,0;	0,0;	0,0
182,0115966796875;	169,5;	0,0;	0,0
182,0547332763672;	198,0;	0,0;	0,0
182,09786987304688;	202,5;	0,0;	0,0
182,14100646972656;	200,75;	0,0;	0,0
182,18414306640625;	173,0;	0,0;	0,0
182,2272491455078;	174,25;	0,0;	0,0
182,27037048339844;	179,5;	0,0;	0,0
182,31350708007812;	182,25;	0,0;	0,0
182,35658264160156;	173,25;	0,0;	0,0
182,3997039794922;	189,0;	0,0;	0,0
182,4427947998047;	201,0;	0,0;	0,0
182,4858856201172;	178,75;	0,0;	0,0
182,52896118164062;	204,5;	0,0;	0,0
182,57205200195312;	184,0;	0,0;	0,0
182,6151123046875;	185,5;	0,0;	0,0
182,658203125;	189,5;	0,0;	0,0
182,70126342773438;	183,25;	0,0;	0,0
182,7443084716797;	199,75;	0,0;	0,0
182,78738403320312;	188,0;	0,0;	0,0
182,83041381835938;	180,75;	0,0;	0,0
182,8734588623047;	187,25;	0,0;	0,0
182,91648864746094;	182,5;	0,0;	0,0
182,9595184326172;	173,25;	0,0;	0,0
183,00253295898438;	180,0;	0,0;	0,0
183,04556274414062;	190,25;	0,0;	0,0
183,0885772705078;	192,5;	0,0;	0,0
183,131591796875;	169,75;	0,0;	0,0
183,1746063232422;	177,0;	0,0;	0,0
183,21759033203125;	199,5;	0,0;	0,0
183,26058959960938;	180,5;	0,0;	0,0
183,30355834960938;	173,75;	0,0;	0,0
183,3465576171875;	177,25;	0,0;	0,0
183,3895263671875;	183,5;	0,0;	0,0
183,43251037597656;	196,25;	0,0;	0,0
183,4754638671875;	183,25;	0,0;	0,0
183,5184326171875;	199,75;	0,0;	0,0
183,56137084960938;	172,5;	0,0;	0,0
183,60433959960938;	188,75;	0,0;	0,0
183,64727783203125;	187,5;	0,0;	0,0
183,69020080566406;	198,5;	0,0;	0,0
183,733154296875;	180,25;	0,0;	0,0
183,77606201171875;	185,25;	0,0;	0,0
183,81900024414062;	183,25;	0,0;	0,0
183,86190795898438;	195,25;	0,0;	0,0
183,90481567382812;	186,25;	0,0;	0,0
183,94772338867188;	176,5;	0,0;	0,0
183,99061584472656;	171,0;	0,0;	0,0
184,03353881835938;	189,0;	0,0;	0,0
184,07640075683594;	191,0;	0,0;	0,0
184,11929321289062;	178,5;	0,0;	0,0
184,16217041015625;	184,75;	0,0;	0,0
184,20504760742188;	190,5;	0,0;	0,0
184,24789428710938;	185,0;	0,0;	0,0
184,290771484375;	189,0;	0,0;	0,0
184,3336181640625;	183,75;	0,0;	0,0
184,37648010253906;	183,25;	0,0;	0,0
184,4193115234375;	185,75;	0,0;	0,0
184,462158203125;	170,5;	0,0;	0,0
184,5050048828125;	181,0;	0,0;	0,0
184,54782104492188;	197,25;	0,0;	0,0
184,59066772460938;	197,5;	0,0;	0,0
184,6334686279297;	184,75;	0,0;	0,0
184,67628479003906;	176,25;	0,0;	0,0
184,7190704345703;	192,0;	0,0;	0,0
184,7618865966797;	189,0;	0,0;	0,0
184,8046875;	190,75;	0,0;	0,0
184,84747314453125;	190,75;	0,0;	0,0
184,89024353027344;	181,0;	0,0;	0,0
184,9330291748047;	181,5;	0,0;	0,0
184,97581481933594;	184,5;	0,0;	0,0
185,01856994628906;	194,25;	0,0;	0,0
185,0613555908203;	164,25;	0,0;	0,0
185,10409545898438;	201,0;	0,0;	0,0
185,1468505859375;	187,25;	0,0;	0,0
185,18959045410156;	193,25;	0,0;	0,0
185,2323455810547;	187,0;	0,0;	0,0
185,2750701904297;	199,5;	0,0;	0,0
185,3177947998047;	181,5;	0,0;	0,0
185,36053466796875;	192,0;	0,0;	0,0
185,4032440185547;	196,5;	0,0;	0,0
185,4459686279297;	204,5;	0,0;	0,0
185,48866271972656;	189,25;	0,0;	0,0
185,5313720703125;	187,75;	0,0;	0,0
185,5740509033203;	190,0;	0,0;	0,0
185,61676025390625;	198,75;	0,0;	0,0
185,65943908691406;	192,25;	0,0;	0,0
185,70211791992188;	196,0;	0,0;	0,0
185,74478149414062;	197,25;	0,0;	0,0
185,78746032714844;	177,0;	0,0;	0,0
185,83013916015625;	206,75;	0,0;	0,0
185,87278747558594;	188,5;	0,0;	0,0
185,9154510498047;	197,5;	0,0;	0,0
185,9580841064453;	171,5;	0,0;	0,0
186,00074768066406;	193,0;	0,0;	0,0
186,04336547851562;	187,25;	0,0;	0,0
186,0860137939453;	191,75;	0,0;	0,0
186,1286163330078;	193,75;	0,0;	0,0
186,17124938964844;	198,75;	0,0;	0,0
186,21385192871094;	179,0;	0,0;	0,0
186,2564697265625;	181,0;	0,0;	0,0
186,29908752441406;	183,75;	0,0;	0,0
186,3416748046875;	190,75;	0,0;	0,0
186,38426208496094;	188,75;	0,0;	0,0
186,42684936523438;	180,5;	0,0;	0,0
186,4694366455078;	187,5;	0,0;	0,0
186,5120086669922;	170,25;	0,0;	0,0
186,55458068847656;	199,25;	0,0;	0,0
186,59713745117188;	194,25;	0,0;	0,0
186,63970947265625;	179,75;	0,0;	0,0
186,6822509765625;	172,25;	0,0;	0,0
186,72479248046875;	183,5;	0,0;	0,0
186,76734924316406;	187,0;	0,0;	0,0
186,80987548828125;	196,0;	0,0;	0,0
186,8524169921875;	190,25;	0,0;	0,0
186,8949432373047;	176,5;	0,0;	0,0
186,9374542236328;	192,25;	0,0;	0,0
186,97996520996094;	191,0;	0,0;	0,0
187,02249145507812;	181,5;	0,0;	0,0
187,0649871826172;	195,0;	0,0;	0,0
187,1074981689453;	186,25;	0,0;	0,0
187,1499786376953;	211,0;	0,0;	0,0
187,19247436523438;	199,0;	0,0;	0,0
187,23495483398438;	195,75;	0,0;	0,0
187,2774200439453;	174,0;	0,0;	0,0
187,3199005126953;	193,0;	0,0;	0,0
187,36236572265625;	197,5;	0,0;	0,0
187,40481567382812;	199,5;	0,0;	0,0
187,447265625;	192,25;	0,0;	0,0
187,48971557617188;	201,0;	0,0;	0,0
187,5321807861328;	179,0;	0,0;	0,0
187,57460021972656;	210,25;	0,0;	0,0
187,61703491210938;	205,75;	0,0;	0,0
187,65945434570312;	181,0;	0,0;	0,0
187,70188903808594;	181,0;	0,0;	0,0
187,74429321289062;	195,5;	0,0;	0,0
187,78671264648438;	167,0;	0,0;	0,0
187,8291015625;	196,25;	0,0;	0,0
187,8715057373047;	178,5;	0,0;	0,0
187,9138946533203;	191,5;	0,0;	0,0
187,95628356933594;	181,75;	0,0;	0,0
187,99867248535156;	180,5;	0,0;	0,0
188,04104614257812;	196,5;	0,0;	0,0
188,0834197998047;	181,25;	0,0;	0,0
188,1257781982422;	199,75;	0,0;	0,0
188,1681365966797;	201,25;	0,0;	0,0
188,21047973632812;	184,75;	0,0;	0,0
188,2528533935547;	195,75;	0,0;	0,0
188,29518127441406;	189,5;	0,0;	0,0
188,3375244140625;	195,25;	0,0;	0,0
188,37986755371094;	186,5;	0,0;	0,0
188,42218017578125;	177,25;	0,0;	0,0
188,46450805664062;	181,25;	0,0;	0,0
188,50680541992188;	199,75;	0,0;	0,0
188,5491180419922;	186,0;	0,0;	0,0
188,5914306640625;	196,75;	0,0;	0,0
188,6337432861328;	185,5;	0,0;	0,0
188,676025390625;	175,5;	0,0;	0,0
188,71832275390625;	182,75;	0,0;	0,0
188,76058959960938;	182,5;	0,0;	0,0
188,80287170410156;	188,75;	0,0;	0,0
188,84515380859375;	189,25;	0,0;	0,0
188,8874053955078;	182,25;	0,0;	0,0
188,92965698242188;	186,75;	0,0;	0,0
188,97190856933594;	185,75;	0,0;	0,0
189,01416015625;	169,25;	0,0;	0,0
189,056396484375;	194,5;	0,0;	0,0
189,09864807128906;	190,0;	0,0;	0,0
189,140869140625;	184,25;	0,0;	0,0
189,18310546875;	187,75;	0,0;	0,0
189,22532653808594;	188,0;	0,0;	0,0
189,2675323486328;	174,25;	0,0;	0,0
189,30975341796875;	180,5;	0,0;	0,0
189,35194396972656;	185,0;	0,0;	0,0
189,3941650390625;	184,75;	0,0;	0,0
189,4363250732422;	180,5;	0,0;	0,0
189,47853088378906;	185,5;	0,0;	0,0
189,5207061767578;	186,25;	0,0;	0,0
189,56288146972656;	189,5;	0,0;	0,0
189,60504150390625;	176,25;	0,0;	0,0
189,647216796875;	213,75;	0,0;	0,0
189,6893768310547;	172,75;	0,0;	0,0
189,7315216064453;	213,5;	0,0;	0,0
189,77369689941406;	188,25;	0,0;	0,0
189,81581115722656;	188,0;	0,0;	0,0
189,85797119140625;	169,75;	0,0;	0,0
189,90008544921875;	178,25;	0,0;	0,0
189,9422149658203;	188,75;	0,0;	0,0
189,98431396484375;	202,5;	0,0;	0,0
190,0264434814453;	182,0;	0,0;	0,0
190,0685577392578;	189,75;	0,0;	0,0
190,11065673828125;	188,5;	0,0;	0,0
190,1527557373047;	182,75;	0,0;	0,0
190,19485473632812;	200,75;	0,0;	0,0
190,2369384765625;	181,5;	0,0;	0,0
190,2790069580078;	208,75;	0,0;	0,0
190,3210906982422;	172,25;	0,0;	0,0
190,36314392089844;	188,75;	0,0;	0,0
190,40521240234375;	191,25;	0,0;	0,0
190,44728088378906;	182,25;	0,0;	0,0
190,4893341064453;	193,75;	0,0;	0,0
190,5313720703125;	196,0;	0,0;	0,0
190,57342529296875;	202,25;	0,0;	0,0
190,61546325683594;	202,5;	0,0;	0,0
190,65748596191406;	200,0;	0,0;	0,0
190,6995086669922;	188,25;	0,0;	0,0
190,74151611328125;	191,0;	0,0;	0,0
190,78355407714844;	192,5;	0,0;	0,0
190,82554626464844;	183,75;	0,0;	0,0
190,8675537109375;	189,0;	0,0;	0,0
190,9095458984375;	183,5;	0,0;	0,0
190,9515380859375;	165,5;	0,0;	0,0
190,9935302734375;	173,75;	0,0;	0,0
191,03549194335938;	200,75;	0,0;	0,0
191,07748413085938;	192,0;	0,0;	0,0
191,1194305419922;	182,75;	0,0;	0,0
191,16140747070312;	184,75;	0,0;	0,0
191,20335388183594;	167,75;	0,0;	0,0
191,2453155517578;	185,25;	0,0;	0,0
191,28724670410156;	191,5;	0,0;	0,0
191,32919311523438;	180,25;	0,0;	0,0
191,3711395263672;	187,75;	0,0;	0,0
191,41307067871094;	190,75;	0,0;	0,0
191,4550018310547;	184,5;	0,0;	0,0
191,4969024658203;	190,75;	0,0;	0,0
191,538818359375;	178,5;	0,0;	0,0
191,58071899414062;	171,75;	0,0;	0,0
191,62261962890625;	185,75;	0,0;	0,0
191,66452026367188;	196,25;	0,0;	0,0
191,70640563964844;	179,25;	0,0;	0,0
191,74827575683594;	170,25;	0,0;	0,0
191,79017639160156;	179,75;	0,0;	0,0
191,83204650878906;	196,75;	0,0;	0,0
191,8739013671875;	191,5;	0,0;	0,0
191,915771484375;	176,0;	0,0;	0,0
191,95761108398438;	161,5;	0,0;	0,0
191,99948120117188;	178,25;	0,0;	0,0
192,04132080078125;	177,75;	0,0;	0,0
192,08316040039062;	190,75;	0,0;	0,0
192,12498474121094;	194,0;	0,0;	0,0
192,16680908203125;	187,25;	0,0;	0,0
192,20863342285156;	181,5;	0,0;	0,0
192,25045776367188;	190,25;	0,0;	0,0
192,2922821044922;	179,25;	0,0;	0,0
192,3340606689453;	180,5;	0,0;	0,0
192,37586975097656;	175,0;	0,0;	0,0
192,41766357421875;	179,75;	0,0;	0,0
192,45944213867188;	176,5;	0,0;	0,0
192,501220703125;	200,5;	0,0;	0,0
192,5430145263672;	186,75;	0,0;	0,0
192,5847625732422;	184,0;	0,0;	0,0
192,6265411376953;	192,25;	0,0;	0,0
192,66831970214844;	167,25;	0,0;	0,0
192,71005249023438;	188,25;	0,0;	0,0
192,75180053710938;	176,25;	0,0;	0,0
192,7935333251953;	181,0;	0,0;	0,0
192,8352813720703;	174,0;	0,0;	0,0
192,87701416015625;	182,5;	0,0;	0,0
192,9187469482422;	204,0;	0,0;	0,0
192,96044921875;	235,0;	0,0;	0,0
193,00218200683594;	244,5;	0,0;	0,0
193,04388427734375;	197,5;	0,0;	0,0
193,08558654785156;	175,25;	0,0;	0,0
193,12728881835938;	193,5;	0,0;	0,0
193,16897583007812;	167,5;	0,0;	0,0
193,21066284179688;	184,75;	0,0;	0,0
193,25233459472656;	190,75;	0,0;	0,0
193,2940216064453;	200,5;	0,0;	0,0
193,33567810058594;	195,25;	0,0;	0,0
193,37734985351562;	211,75;	0,0;	0,0
193,4189910888672;	201,25;	0,0;	0,0
193,4606475830078;	165,75;	0,0;	0,0
193,50228881835938;	189,25;	0,0;	0,0
193,5439453125;	181,0;	0,0;	0,0
193,58558654785156;	177,25;	0,0;	0,0
193,627197265625;	176,5;	0,0;	0,0
193,6688232421875;	176,75;	0,0;	0,0
193,71043395996094;	179,5;	0,0;	0,0
193,75204467773438;	198,5;	0,0;	0,0
193,7936553955078;	193,0;	0,0;	0,0
193,83526611328125;	180,75;	0,0;	0,0
193,87684631347656;	173,75;	0,0;	0,0
193,91844177246094;	194,75;	0,0;	0,0
193,96002197265625;	200,25;	0,0;	0,0
194,00160217285156;	193,5;	0,0;	0,0
194,04318237304688;	173,75;	0,0;	0,0
194,08473205566406;	191,75;	0,0;	0,0
194,1262969970703;	206,25;	0,0;	0,0
194,16786193847656;	185,5;	0,0;	0,0
194,20941162109375;	183,75;	0,0;	0,0
194,25094604492188;	192,25;	0,0;	0,0
194,29248046875;	169,75;	0,0;	0,0
194,33401489257812;	185,0;	0,0;	0,0
194,37554931640625;	188,25;	0,0;	0,0
194,4170684814453;	183,25;	0,0;	0,0
194,4585723876953;	176,5;	0,0;	0,0
194,50010681152344;	181,25;	0,0;	0,0
194,54159545898438;	179,0;	0,0;	0,0
194,58309936523438;	186,0;	0,0;	0,0
194,62457275390625;	190,0;	0,0;	0,0
194,66607666015625;	192,75;	0,0;	0,0
194,70753479003906;	196,0;	0,0;	0,0
194,7490234375;	198,5;	0,0;	0,0
194,79049682617188;	190,5;	0,0;	0,0
194,83197021484375;	199,0;	0,0;	0,0
194,87342834472656;	186,25;	0,0;	0,0
194,9148712158203;	199,5;	0,0;	0,0
194,95632934570312;	191,75;	0,0;	0,0
194,9977569580078;	192,25;	0,0;	0,0
195,0391845703125;	185,0;	0,0;	0,0
195,0806121826172;	189,5;	0,0;	0,0
195,12203979492188;	206,75;	0,0;	0,0
195,1634521484375;	187,75;	0,0;	0,0
195,2048797607422;	186,5;	0,0;	0,0
195,2462921142578;	189,0;	0,0;	0,0
195,2876739501953;	174,75;	0,0;	0,0
195,32908630371094;	176,25;	0,0;	0,0
195,37046813964844;	196,25;	0,0;	0,0
195,411865234375;	195,75;	0,0;	0,0
195,45321655273438;	165,5;	0,0;	0,0
195,49459838867188;	186,25;	0,0;	0,0
195,5359649658203;	188,5;	0,0;	0,0
195,57733154296875;	178,0;	0,0;	0,0
195,6186981201172;	199,75;	0,0;	0,0
195,6600341796875;	197,25;	0,0;	0,0
195,70138549804688;	194,5;	0,0;	0,0
195,74270629882812;	176,75;	0,0;	0,0
195,7840576171875;	177,0;	0,0;	0,0
195,8253631591797;	189,75;	0,0;	0,0
195,86669921875;	179,0;	0,0;	0,0
195,9080047607422;	179,75;	0,0;	0,0
195,94931030273438;	172,25;	0,0;	0,0
195,99063110351562;	190,5;	0,0;	0,0
196,03192138671875;	180,25;	0,0;	0,0
196,0731964111328;	176,0;	0,0;	0,0
196,11448669433594;	187,75;	0,0;	0,0
196,15579223632812;	187,0;	0,0;	0,0
196,19705200195312;	188,75;	0,0;	0,0
196,2383270263672;	189,0;	0,0;	0,0
196,27957153320312;	167,5;	0,0;	0,0
196,3208465576172;	194,75;	0,0;	0,0
196,36207580566406;	190,0;	0,0;	0,0
196,40333557128906;	197,75;	0,0;	0,0
196,44456481933594;	184,5;	0,0;	0,0
196,48580932617188;	193,25;	0,0;	0,0
196,52703857421875;	166,25;	0,0;	0,0
196,56825256347656;	183,0;	0,0;	0,0
196,60948181152344;	187,25;	0,0;	0,0
196,6506805419922;	166,75;	0,0;	0,0
196,69189453125;	192,5;	0,0;	0,0
196,73309326171875;	188,5;	0,0;	0,0
196,7742919921875;	190,0;	0,0;	0,0
196,81546020507812;	176,0;	0,0;	0,0
196,85665893554688;	173,25;	0,0;	0,0
196,89784240722656;	193,25;	0,0;	0,0
196,9390106201172;	194,25;	0,0;	0,0
196,9801788330078;	191,5;	0,0;	0,0
197,02133178710938;	180,5;	0,0;	0,0
197,0625;	179,5;	0,0;	0,0
197,1036376953125;	180,0;	0,0;	0,0
197,14479064941406;	188,0;	0,0;	0,0
197,1859130859375;	196,25;	0,0;	0,0
197,22705078125;	183,75;	0,0;	0,0
197,26817321777344;	185,75;	0,0;	0,0
197,30929565429688;	186,5;	0,0;	0,0
197,3504180908203;	186,5;	0,0;	0,0
197,39151000976562;	188,5;	0,0;	0,0
197,4326171875;	178,25;	0,0;	0,0
197,4737091064453;	183,25;	0,0;	0,0
197,51480102539062;	181,75;	0,0;	0,0
197,55589294433594;	179,25;	0,0;	0,0
197,5969696044922;	164,25;	0,0;	0,0
197,63803100585938;	184,0;	0,0;	0,0
197,67910766601562;	170,0;	0,0;	0,0
197,72015380859375;	180,25;	0,0;	0,0
197,76123046875;	185,0;	0,0;	0,0
197,8022918701172;	165,5;	0,0;	0,0
197,84332275390625;	184,5;	0,0;	0,0
197,88436889648438;	195,0;	0,0;	0,0
197,92538452148438;	188,0;	0,0;	0,0
197,96641540527344;	187,0;	0,0;	0,0
198,00743103027344;	191,25;	0,0;	0,0
198,0484619140625;	184,25;	0,0;	0,0
198,08946228027344;	173,0;	0,0;	0,0
198,13046264648438;	205,0;	0,0;	0,0
198,1714630126953;	186,0;	0,0;	0,0
198,2124481201172;	175,0;	0,0;	0,0
198,25344848632812;	181,5;	0,0;	0,0
198,29443359375;	171,5;	0,0;	0,0
198,3354034423828;	179,0;	0,0;	0,0
198,37635803222656;	174,0;	0,0;	0,0
198,41734313964844;	173,5;	0,0;	0,0
198,45828247070312;	187,75;	0,0;	0,0
198,49923706054688;	195,75;	0,0;	0,0
198,54019165039062;	177,0;	0,0;	0,0
198,5811309814453;	164,5;	0,0;	0,0
198,62205505371094;	188,75;	0,0;	0,0
198,66299438476562;	189,75;	0,0;	0,0
198,7039031982422;	186,25;	0,0;	0,0
198,7448272705078;	204,0;	0,0;	0,0
198,78573608398438;	184,75;	0,0;	0,0
198,82662963867188;	192,25;	0,0;	0,0
198,8675537109375;	180,25;	0,0;	0,0
198,908447265625;	200,5;	0,0;	0,0
198,94932556152344;	184,5;	0,0;	0,0
198,9901885986328;	170,75;	0,0;	0,0
199,0310821533203;	189,5;	0,0;	0,0
199,07196044921875;	187,5;	0,0;	0,0
199,11280822753906;	183,75;	0,0;	0,0
199,1536865234375;	180,25;	0,0;	0,0
199,19451904296875;	181,25;	0,0;	0,0
199,23538208007812;	195,75;	0,0;	0,0
199,27621459960938;	199,25;	0,0;	0,0
199,31704711914062;	192,75;	0,0;	0,0
199,35787963867188;	196,0;	0,0;	0,0
199,39871215820312;	184,0;	0,0;	0,0
199,4395294189453;	185,25;	0,0;	0,0
199,4803466796875;	188,5;	0,0;	0,0
199,52114868164062;	187,75;	0,0;	0,0
199,5619354248047;	175,0;	0,0;	0,0
199,6027374267578;	190,0;	0,0;	0,0
199,64352416992188;	205,0;	0,0;	0,0
199,68431091308594;	185,75;	0,0;	0,0
199,72508239746094;	194,75;	0,0;	0,0
199,765869140625;	191,5;	0,0;	0,0
199,80662536621094;	171,5;	0,0;	0,0
199,84738159179688;	204,0;	0,0;	0,0
199,8881378173828;	182,25;	0,0;	0,0
199,92889404296875;	181,75;	0,0;	0,0
199,96963500976562;	184,75;	0,0;	0,0
200,01036071777344;	195,75;	0,0;	0,0
200,0511016845703;	203,0;	0,0;	0,0
200,09181213378906;	175,0;	0,0;	0,0
200,13255310058594;	185,75;	0,0;	0,0
200,1732635498047;	177,75;	0,0;	0,0
200,21395874023438;	192,25;	0,0;	0,0
200,25465393066406;	195,0;	0,0;	0,0
200,2953643798828;	177,5;	0,0;	0,0
200,3360595703125;	196,25;	0,0;	0,0
200,37672424316406;	183,25;	0,0;	0,0
200,41741943359375;	181,0;	0,0;	0,0
200,4580841064453;	168,5;	0,0;	0,0
200,49874877929688;	180,25;	0,0;	0,0
200,53939819335938;	191,0;	0,0;	0,0
200,58006286621094;	183,0;	0,0;	0,0
200,62071228027344;	181,0;	0,0;	0,0
200,66136169433594;	178,25;	0,0;	0,0
200,70201110839844;	195,5;	0,0;	0,0
200,74261474609375;	191,0;	0,0;	0,0
200,7832489013672;	180,0;	0,0;	0,0
200,82386779785156;	204,5;	0,0;	0,0
200,86448669433594;	181,0;	0,0;	0,0
200,9050750732422;	187,25;	0,0;	0,0
200,94569396972656;	178,0;	0,0;	0,0
200,9862823486328;	203,0;	0,0;	0,0
201,02687072753906;	204,75;	0,0;	0,0
201,06747436523438;	188,0;	0,0;	0,0
201,1080322265625;	189,5;	0,0;	0,0
201,14862060546875;	175,0;	0,0;	0,0
201,18917846679688;	166,5;	0,0;	0,0
201,22975158691406;	193,75;	0,0;	0,0
201,27029418945312;	184,5;	0,0;	0,0
201,31085205078125;	180,25;	0,0;	0,0
201,3513946533203;	189,0;	0,0;	0,0
201,39193725585938;	191,75;	0,0;	0,0
201,43246459960938;	182,75;	0,0;	0,0
201,4729766845703;	174,25;	0,0;	0,0
201,51351928710938;	192,5;	0,0;	0,0
201,5540313720703;	195,5;	0,0;	0,0
201,59454345703125;	191,25;	0,0;	0,0
201,63504028320312;	188,75;	0,0;	0,0
201,675537109375;	181,5;	0,0;	0,0
201,7160186767578;	188,75;	0,0;	0,0
201,7565155029297;	184,75;	0,0;	0,0
201,79698181152344;	181,5;	0,0;	0,0
201,83746337890625;	202,25;	0,0;	0,0
201,8779296875;	187,75;	0,0;	0,0
201,9183807373047;	166,25;	0,0;	0,0
201,95884704589844;	198,75;	0,0;	0,0
201,99929809570312;	182,25;	0,0;	0,0
202,0397491455078;	211,0;	0,0;	0,0
202,08016967773438;	175,25;	0,0;	0,0
202,12062072753906;	200,5;	0,0;	0,0
202,16102600097656;	188,25;	0,0;	0,0
202,2014617919922;	176,0;	0,0;	0,0
202,2418670654297;	187,0;	0,0;	0,0
202,2822723388672;	190,5;	0,0;	0,0
202,3226776123047;	181,25;	0,0;	0,0
202,3630828857422;	183,5;	0,0;	0,0
202,40347290039062;	197,5;	0,0;	0,0
202,44384765625;	179,5;	0,0;	0,0
202,48423767089844;	221,75;	0,0;	0,0
202,52459716796875;	217,5;	0,0;	0,0
202,56497192382812;	181,75;	0,0;	0,0
202,60533142089844;	193,25;	0,0;	0,0
202,64569091796875;	182,75;	0,0;	0,0
202,68605041503906;	199,75;	0,0;	0,0
202,72637939453125;	198,25;	0,0;	0,0
202,7667236328125;	189,75;	0,0;	0,0
202,8070526123047;	174,0;	0,0;	0,0
202,84738159179688;	188,25;	0,0;	0,0
202,8876953125;	175,25;	0,0;	0,0
202,9280242919922;	190,5;	0,0;	0,0
202,96832275390625;	189,25;	0,0;	0,0
203,00863647460938;	185,0;	0,0;	0,0
203,04891967773438;	196,5;	0,0;	0,0
203,08920288085938;	175,5;	0,0;	0,0
203,12948608398438;	189,25;	0,0;	0,0
203,16978454589844;	203,0;	0,0;	0,0
203,21005249023438;	199,5;	0,0;	0,0
203,2503204345703;	192,25;	0,0;	0,0
203,2905731201172;	187,75;	0,0;	0,0
203,33082580566406;	187,0;	0,0;	0,0
203,37107849121094;	186,5;	0,0;	0,0
203,41131591796875;	185,75;	0,0;	0,0
203,45155334472656;	168,5;	0,0;	0,0
203,49179077148438;	183,25;	0,0;	0,0
203,53201293945312;	187,5;	0,0;	0,0
203,57223510742188;	165,75;	0,0;	0,0
203,61244201660156;	185,75;	0,0;	0,0
203,6526641845703;	182,75;	0,0;	0,0
203,69285583496094;	176,0;	0,0;	0,0
203,73306274414062;	196,75;	0,0;	0,0
203,7732391357422;	173,25;	0,0;	0,0
203,8134307861328;	200,25;	0,0;	0,0
203,85360717773438;	187,75;	0,0;	0,0
203,89378356933594;	175,5;	0,0;	0,0
203,9339599609375;	176,75;	0,0;	0,0
203,97410583496094;	179,0;	0,0;	0,0
204,01426696777344;	204,5;	0,0;	0,0
204,05441284179688;	190,25;	0,0;	0,0
204,0945587158203;	193,75;	0,0;	0,0
204,1346893310547;	185,75;	0,0;	0,0
204,17481994628906;	197,0;	0,0;	0,0
204,21495056152344;	183,25;	0,0;	0,0
204,25506591796875;	177,0;	0,0;	0,0
204,29519653320312;	196,75;	0,0;	0,0
204,33529663085938;	179,25;	0,0;	0,0
204,37539672851562;	191,0;	0,0;	0,0
204,41549682617188;	191,5;	0,0;	0,0
204,45558166503906;	161,5;	0,0;	0,0
204,4956512451172;	189,25;	0,0;	0,0
204,53573608398438;	203,5;	0,0;	0,0
204,5758056640625;	182,0;	0,0;	0,0
204,61587524414062;	181,75;	0,0;	0,0
204,6559295654297;	191,25;	0,0;	0,0
204,69598388671875;	186,5;	0,0;	0,0
204,73602294921875;	168,75;	0,0;	0,0
204,7760772705078;	180,0;	0,0;	0,0
204,8161163330078;	180,25;	0,0;	0,0
204,85614013671875;	183,0;	0,0;	0,0
204,8961639404297;	184,75;	0,0;	0,0
204,93617248535156;	197,25;	0,0;	0,0
204,9761962890625;	190,0;	0,0;	0,0
205,0161895751953;	184,5;	0,0;	0,0
205,0561981201172;	185,5;	0,0;	0,0
205,09619140625;	174,25;	0,0;	0,0
205,1361846923828;	184,0;	0,0;	0,0
205,17617797851562;	189,0;	0,0;	0,0
205,2161407470703;	196,75;	0,0;	0,0
205,25611877441406;	189,75;	0,0;	0,0
205,29608154296875;	185,5;	0,0;	0,0
205,33604431152344;	181,0;	0,0;	0,0
205,3759765625;	192,5;	0,0;	0,0
205,4159393310547;	184,75;	0,0;	0,0
205,45587158203125;	208,25;	0,0;	0,0
205,4958038330078;	201,25;	0,0;	0,0
205,53575134277344;	190,0;	0,0;	0,0
205,57566833496094;	176,25;	0,0;	0,0
205,61558532714844;	174,75;	0,0;	0,0
205,65550231933594;	185,5;	0,0;	0,0
205,69540405273438;	198,0;	0,0;	0,0
205,73529052734375;	176,0;	0,0;	0,0
205,7751922607422;	182,0;	0,0;	0,0
205,8150634765625;	163,75;	0,0;	0,0
205,85494995117188;	174,75;	0,0;	0,0
205,8948211669922;	193,5;	0,0;	0,0
205,93470764160156;	188,0;	0,0;	0,0
205,9745635986328;	201,5;	0,0;	0,0
206,01441955566406;	192,25;	0,0;	0,0
206,05429077148438;	182,25;	0,0;	0,0
206,0941162109375;	183,25;	0,0;	0,0
206,1339569091797;	188,0;	0,0;	0,0
206,1737823486328;	180,25;	0,0;	0,0
206,21360778808594;	186,0;	0,0;	0,0
206,25343322753906;	182,5;	0,0;	0,0
206,2932586669922;	179,5;	0,0;	0,0
206,3330535888672;	197,5;	0,0;	0,0
206,3728790283203;	192,0;	0,0;	0,0
206,4126739501953;	184,0;	0,0;	0,0
206,45245361328125;	173,75;	0,0;	0,0
206,49224853515625;	194,25;	0,0;	0,0
206,53201293945312;	175,25;	0,0;	0,0
206,57179260253906;	176,5;	0,0;	0,0
206,611572265625;	182,0;	0,0;	0,0
206,65133666992188;	170,25;	0,0;	0,0
206,69107055664062;	182,0;	0,0;	0,0
206,7308349609375;	176,0;	0,0;	0,0
206,7705841064453;	192,25;	0,0;	0,0
206,810302734375;	205,0;	0,0;	0,0
206,8500518798828;	203,5;	0,0;	0,0
206,8897705078125;	184,0;	0,0;	0,0
206,9294891357422;	196,5;	0,0;	0,0
206,9691925048828;	161,0;	0,0;	0,0
207,0089111328125;	183,5;	0,0;	0,0
207,04859924316406;	182,75;	0,0;	0,0
207,08831787109375;	169,5;	0,0;	0,0
207,12799072265625;	196,25;	0,0;	0,0
207,1676788330078;	186,0;	0,0;	0,0
207,2073516845703;	182,25;	0,0;	0,0
207,2470245361328;	179,25;	0,0;	0,0
207,28671264648438;	187,25;	0,0;	0,0
207,32635498046875;	183,5;	0,0;	0,0
207,36599731445312;	203,5;	0,0;	0,0
207,40565490722656;	195,5;	0,0;	0,0
207,44529724121094;	192,5;	0,0;	0,0
207,48492431640625;	176,5;	0,0;	0,0
207,52455139160156;	188,75;	0,0;	0,0
207,56417846679688;	167,25;	0,0;	0,0
207,6038055419922;	195,75;	0,0;	0,0
207,64341735839844;	183,75;	0,0;	0,0
207,68301391601562;	187,75;	0,0;	0,0
207,72262573242188;	185,25;	0,0;	0,0
207,76220703125;	200,5;	0,0;	0,0
207,8018035888672;	179,25;	0,0;	0,0
207,8413848876953;	180,25;	0,0;	0,0
207,88095092773438;	186,25;	0,0;	0,0
207,92051696777344;	175,5;	0,0;	0,0
207,96009826660156;	181,25;	0,0;	0,0
207,99966430664062;	172,0;	0,0;	0,0
208,03919982910156;	199,0;	0,0;	0,0
208,07875061035156;	172,0;	0,0;	0,0
208,11827087402344;	201,75;	0,0;	0,0
208,15782165527344;	185,5;	0,0;	0,0
208,1973419189453;	176,0;	0,0;	0,0
208,23687744140625;	175,0;	0,0;	0,0
208,2763671875;	173,0;	0,0;	0,0
208,31588745117188;	190,75;	0,0;	0,0
208,35540771484375;	190,75;	0,0;	0,0
208,3948974609375;	184,5;	0,0;	0,0
208,4343719482422;	200,0;	0,0;	0,0
208,47386169433594;	179,5;	0,0;	0,0
208,5133514404297;	167,75;	0,0;	0,0
208,5528106689453;	188,25;	0,0;	0,0
208,59228515625;	183,25;	0,0;	0,0
208,63174438476562;	179,5;	0,0;	0,0
208,67120361328125;	167,25;	0,0;	0,0
208,71066284179688;	194,75;	0,0;	0,0
208,75009155273438;	170,0;	0,0;	0,0
208,78952026367188;	182,0;	0,0;	0,0
208,82894897460938;	189,75;	0,0;	0,0
208,86839294433594;	176,5;	0,0;	0,0
208,9077911376953;	184,25;	0,0;	0,0
208,9472198486328;	192,5;	0,0;	0,0
208,9866180419922;	186,0;	0,0;	0,0
209,02603149414062;	188,25;	0,0;	0,0
209,06539916992188;	180,75;	0,0;	0,0
209,1048126220703;	186,0;	0,0;	0,0
209,14418029785156;	170,25;	0,0;	0,0
209,18356323242188;	182,0;	0,0;	0,0
209,2229461669922;	187,0;	0,0;	0,0
209,26229858398438;	181,25;	0,0;	0,0
209,30166625976562;	184,0;	0,0;	0,0
209,34100341796875;	196,5;	0,0;	0,0
209,38035583496094;	189,5;	0,0;	0,0
209,41969299316406;	199,5;	0,0;	0,0
209,4590301513672;	178,0;	0,0;	0,0
209,49835205078125;	162,5;	0,0;	0,0
209,5376739501953;	178,75;	0,0;	0,0
209,57701110839844;	196,25;	0,0;	0,0
209,61631774902344;	172,25;	0,0;	0,0
209,6555938720703;	184,5;	0,0;	0,0
209,6949005126953;	176,75;	0,0;	0,0
209,7342071533203;	186,25;	0,0;	0,0
209,7734832763672;	187,5;	0,0;	0,0
209,81277465820312;	191,5;	0,0;	0,0
209,85203552246094;	169,25;	0,0;	0,0
209,8913116455078;	180,75;	0,0;	0,0
209,93057250976562;	181,5;	0,0;	0,0
209,96981811523438;	174,75;	0,0;	0,0
210,00906372070312;	187,75;	0,0;	0,0
210,04830932617188;	195,0;	0,0;	0,0
210,08755493164062;	180,75;	0,0;	0,0
210,12677001953125;	185,75;	0,0;	0,0
210,16600036621094;	189,75;	0,0;	0,0
210,20521545410156;	180,25;	0,0;	0,0
210,2444305419922;	193,0;	0,0;	0,0
210,28363037109375;	187,25;	0,0;	0,0
210,32284545898438;	192,25;	0,0;	0,0
210,36203002929688;	190,75;	0,0;	0,0
210,40122985839844;	171,5;	0,0;	0,0
210,44041442871094;	194,5;	0,0;	0,0
210,47958374023438;	175,0;	0,0;	0,0
210,5187530517578;	195,5;	0,0;	0,0
210,55792236328125;	183,25;	0,0;	0,0
210,59707641601562;	201,75;	0,0;	0,0
210,63623046875;	194,75;	0,0;	0,0
210,6753692626953;	183,5;	0,0;	0,0
210,71450805664062;	182,75;	0,0;	0,0
210,75364685058594;	195,5;	0,0;	0,0
210,79278564453125;	190,75;	0,0;	0,0
210,83189392089844;	191,25;	0,0;	0,0
210,87100219726562;	189,75;	0,0;	0,0
210,91012573242188;	167,25;	0,0;	0,0
210,94923400878906;	179,75;	0,0;	0,0
210,98831176757812;	199,75;	0,0;	0,0
211,0274200439453;	172,0;	0,0;	0,0
211,06649780273438;	189,25;	0,0;	0,0
211,10557556152344;	181,0;	0,0;	0,0
211,14466857910156;	190,25;	0,0;	0,0
211,1837158203125;	168,75;	0,0;	0,0
211,22276306152344;	192,0;	0,0;	0,0
211,26182556152344;	188,0;	0,0;	0,0
211,30088806152344;	181,0;	0,0;	0,0
211,3399200439453;	192,0;	0,0;	0,0
211,37896728515625;	197,75;	0,0;	0,0
211,41798400878906;	186,0;	0,0;	0,0
211,45701599121094;	188,0;	0,0;	0,0
211,49603271484375;	187,5;	0,0;	0,0
211,53504943847656;	175,0;	0,0;	0,0
211,57403564453125;	198,75;	0,0;	0,0
211,613037109375;	193,5;	0,0;	0,0
211,65203857421875;	181,5;	0,0;	0,0
211,69102478027344;	189,25;	0,0;	0,0
211,73001098632812;	177,5;	0,0;	0,0
211,76898193359375;	174,25;	0,0;	0,0
211,80795288085938;	176,25;	0,0;	0,0
211,84690856933594;	186,75;	0,0;	0,0
211,88587951660156;	166,5;	0,0;	0,0
211,9248046875;	186,25;	0,0;	0,0
211,96376037597656;	187,0;	0,0;	0,0
212,00271606445312;	197,5;	0,0;	0,0
212,04164123535156;	200,25;	0,0;	0,0
212,08056640625;	183,75;	0,0;	0,0
212,11947631835938;	175,5;	0,0;	0,0
212,1584014892578;	172,0;	0,0;	0,0
212,19729614257812;	168,75;	0,0;	0,0
212,2362060546875;	187,0;	0,0;	0,0
212,2751007080078;	200,75;	0,0;	0,0
212,31399536132812;	198,75;	0,0;	0,0
212,35287475585938;	212,5;	0,0;	0,0
212,39175415039062;	195,75;	0,0;	0,0
212,4306182861328;	180,0;	0,0;	0,0
212,469482421875;	177,75;	0,0;	0,0
212,5083465576172;	174,25;	0,0;	0,0
212,5471954345703;	194,25;	0,0;	0,0
212,58604431152344;	195,75;	0,0;	0,0
212,6248779296875;	191,0;	0,0;	0,0
212,66372680664062;	174,75;	0,0;	0,0
212,7025604248047;	184,5;	0,0;	0,0
212,74136352539062;	179,0;	0,0;	0,0
212,78018188476562;	186,75;	0,0;	0,0
212,81900024414062;	182,0;	0,0;	0,0
212,85780334472656;	179,75;	0,0;	0,0
212,89659118652344;	191,75;	0,0;	0,0
212,93539428710938;	192,0;	0,0;	0,0
212,97418212890625;	186,75;	0,0;	0,0
213,01295471191406;	205,5;	0,0;	0,0
213,0517120361328;	198,75;	0,0;	0,0
213,0904998779297;	197,25;	0,0;	0,0
213,12924194335938;	174,0;	0,0;	0,0
213,16799926757812;	194,75;	0,0;	0,0
213,20675659179688;	194,25;	0,0;	0,0
213,24549865722656;	187,75;	0,0;	0,0
213,28424072265625;	187,0;	0,0;	0,0
213,3229522705078;	178,5;	0,0;	0,0
213,3616943359375;	176,25;	0,0;	0,0
213,40040588378906;	173,5;	0,0;	0,0
213,43911743164062;	191,75;	0,0;	0,0
213,4778289794922;	184,5;	0,0;	0,0
213,5165252685547;	175,25;	0,0;	0,0
213,5552215576172;	193,5;	0,0;	0,0
213,59388732910156;	192,75;	0,0;	0,0
213,632568359375;	190,75;	0,0;	0,0
213,67124938964844;	204,25;	0,0;	0,0
213,70993041992188;	179,0;	0,0;	0,0
213,7485809326172;	201,75;	0,0;	0,0
213,78724670410156;	193,75;	0,0;	0,0
213,82589721679688;	232,75;	0,0;	0,0
213,86453247070312;	198,5;	0,0;	0,0
213,90318298339844;	176,0;	0,0;	0,0
213,94180297851562;	204,25;	0,0;	0,0
213,9804229736328;	179,25;	0,0;	0,0
214,01904296875;	195,75;	0,0;	0,0
214,0576629638672;	187,75;	0,0;	0,0
214,0962677001953;	190,0;	0,0;	0,0
214,13487243652344;	177,0;	0,0;	0,0
214,1734619140625;	177,0;	0,0;	0,0
214,21205139160156;	189,25;	0,0;	0,0
214,25064086914062;	184,25;	0,0;	0,0
214,28921508789062;	179,5;	0,0;	0,0
214,32777404785156;	186,0;	0,0;	0,0
214,36634826660156;	190,0;	0,0;	0,0
214,4049072265625;	189,5;	0,0;	0,0
214,44345092773438;	185,5;	0,0;	0,0
214,4820098876953;	155,25;	0,0;	0,0
214,52052307128906;	173,0;	0,0;	0,0
214,55906677246094;	183,0;	0,0;	0,0
214,5975799560547;	190,75;	0,0;	0,0
214,63612365722656;	177,25;	0,0;	0,0
214,67462158203125;	190,0;	0,0;	0,0
214,71315002441406;	193,5;	0,0;	0,0
214,75164794921875;	194,0;	0,0;	0,0
214,79013061523438;	181,25;	0,0;	0,0
214,82861328125;	196,0;	0,0;	0,0
214,86709594726562;	190,0;	0,0;	0,0
214,9055938720703;	179,25;	0,0;	0,0
214,9440460205078;	178,5;	0,0;	0,0
214,98252868652344;	207,0;	0,0;	0,0
215,02096557617188;	204,0;	0,0;	0,0
215,05943298339844;	194,5;	0,0;	0,0
215,09786987304688;	197,5;	0,0;	0,0
215,13632202148438;	185,25;	0,0;	0,0
215,17474365234375;	197,5;	0,0;	0,0
215,21316528320312;	206,5;	0,0;	0,0
215,25160217285156;	190,75;	0,0;	0,0
215,29000854492188;	171,25;	0,0;	0,0
215,32843017578125;	172,5;	0,0;	0,0
215,3668212890625;	164,25;	0,0;	0,0
215,4052276611328;	177,25;	0,0;	0,0
215,44361877441406;	179,25;	0,0;	0,0
215,48199462890625;	195,5;	0,0;	0,0
215,52035522460938;	197,75;	0,0;	0,0
215,55874633789062;	187,5;	0,0;	0,0
215,5971221923828;	201,5;	0,0;	0,0
215,6354522705078;	196,5;	0,0;	0,0
215,673828125;	195,25;	0,0;	0,0
215,71217346191406;	203,75;	0,0;	0,0
215,75050354003906;	205,75;	0,0;	0,0
215,78883361816406;	197,25;	0,0;	0,0
215,82717895507812;	205,75;	0,0;	0,0
215,865478515625;	187,5;	0,0;	0,0
215,90380859375;	194,75;	0,0;	0,0
215,94212341308594;	194,25;	0,0;	0,0
215,98040771484375;	196,5;	0,0;	0,0
216,0187225341797;	199,75;	0,0;	0,0
216,0570068359375;	196,75;	0,0;	0,0
216,0952911376953;	184,25;	0,0;	0,0
216,13356018066406;	204,0;	0,0;	0,0
216,17184448242188;	211,75;	0,0;	0,0
216,21009826660156;	196,25;	0,0;	0,0
216,24838256835938;	168,75;	0,0;	0,0
216,28662109375;	183,0;	0,0;	0,0
216,3248748779297;	186,0;	0,0;	0,0
216,36309814453125;	182,25;	0,0;	0,0
216,40135192871094;	205,0;	0,0;	0,0
216,4395751953125;	209,75;	0,0;	0,0
216,47779846191406;	195,5;	0,0;	0,0
216,51602172851562;	209,0;	0,0;	0,0
216,55421447753906;	204,5;	0,0;	0,0
216,59242248535156;	223,5;	0,0;	0,0
216,63063049316406;	270,75;	0,0;	0,0
216,6688232421875;	213,75;	0,0;	0,0
216,70700073242188;	189,5;	0,0;	0,0
216,74517822265625;	203,25;	0,0;	0,0
216,78335571289062;	201,25;	0,0;	0,0
216,82151794433594;	198,75;	0,0;	0,0
216,85968017578125;	194,75;	0,0;	0,0
216,8978271484375;	190,25;	0,0;	0,0
216,93597412109375;	193,0;	0,0;	0,0
216,97412109375;	173,0;	0,0;	0,0
217,0122528076172;	188,75;	0,0;	0,0
217,05038452148438;	202,75;	0,0;	0,0
217,0885009765625;	209,0;	0,0;	0,0
217,1266326904297;	194,0;	0,0;	0,0
217,16473388671875;	183,5;	0,0;	0,0
217,2028350830078;	187,25;	0,0;	0,0
217,2409210205078;	197,75;	0,0;	0,0
217,27902221679688;	201,0;	0,0;	0,0
217,31710815429688;	193,0;	0,0;	0,0
217,35519409179688;	172,75;	0,0;	0,0
217,39324951171875;	186,5;	0,0;	0,0
217,4313201904297;	198,75;	0,0;	0,0
217,46939086914062;	185,0;	0,0;	0,0
217,5074462890625;	188,5;	0,0;	0,0
217,54547119140625;	181,75;	0,0;	0,0
217,58352661132812;	181,25;	0,0;	0,0
217,62158203125;	195,25;	0,0;	0,0
217,6595916748047;	181,5;	0,0;	0,0
217,6976318359375;	191,25;	0,0;	0,0
217,73562622070312;	240,75;	0,0;	0,0
217,77365112304688;	244,0;	0,0;	0,0
217,81166076660156;	198,0;	0,0;	0,0
217,8496551513672;	200,25;	0,0;	0,0
217,88763427734375;	187,0;	0,0;	0,0
217,92562866210938;	197,75;	0,0;	0,0
217,96360778808594;	166,0;	0,0;	0,0
218,00157165527344;	186,5;	0,0;	0,0
218,03955078125;	186,5;	0,0;	0,0
218,07749938964844;	190,0;	0,0;	0,0
218,11544799804688;	194,25;	0,0;	0,0
218,15341186523438;	194,5;	0,0;	0,0
218,19134521484375;	194,75;	0,0;	0,0
218,22926330566406;	181,25;	0,0;	0,0
218,2672119140625;	157,0;	0,0;	0,0
218,3051300048828;	185,0;	0,0;	0,0
218,34304809570312;	185,75;	0,0;	0,0
218,38096618652344;	188,75;	0,0;	0,0
218,41885375976562;	188,5;	0,0;	0,0
218,45677185058594;	184,0;	0,0;	0,0
218,49464416503906;	190,5;	0,0;	0,0
218,53253173828125;	187,75;	0,0;	0,0
218,57040405273438;	230,25;	0,0;	0,0
218,60829162597656;	232,25;	0,0;	0,0
218,6461639404297;	222,5;	0,0;	0,0
218,68402099609375;	229,25;	0,0;	0,0
218,7218475341797;	184,75;	0,0;	0,0
218,75970458984375;	181,0;	0,0;	0,0
218,7975616455078;	191,5;	0,0;	0,0
218,8353729248047;	191,25;	0,0;	0,0
218,8732147216797;	184,5;	0,0;	0,0
218,91102600097656;	183,75;	0,0;	0,0
218,9488525390625;	192,0;	0,0;	0,0
218,98666381835938;	175,75;	0,0;	0,0
219,0244598388672;	188,0;	0,0;	0,0
219,062255859375;	199,75;	0,0;	0,0
219,1000518798828;	216,25;	0,0;	0,0
219,13784790039062;	228,0;	0,0;	0,0
219,1756134033203;	197,25;	0,0;	0,0
219,21339416503906;	183,0;	0,0;	0,0
219,2511444091797;	183,25;	0,0;	0,0
219,28890991210938;	195,0;	0,0;	0,0
219,32666015625;	180,5;	0,0;	0,0
219,36441040039062;	172,5;	0,0;	0,0
219,4021453857422;	179,5;	0,0;	0,0
219,43988037109375;	175,0;	0,0;	0,0
219,4776153564453;	180,5;	0,0;	0,0
219,51531982421875;	205,75;	0,0;	0,0
219,5530548095703;	216,25;	0,0;	0,0
219,5907440185547;	192,25;	0,0;	0,0
219,62844848632812;	187,0;	0,0;	0,0
219,6661376953125;	186,25;	0,0;	0,0
219,70384216308594;	189,25;	0,0;	0,0
219,74151611328125;	180,5;	0,0;	0,0
219,77920532226562;	192,5;	0,0;	0,0
219,81687927246094;	191,5;	0,0;	0,0
219,85452270507812;	179,0;	0,0;	0,0
219,89219665527344;	194,0;	0,0;	0,0
219,92984008789062;	203,25;	0,0;	0,0
219,96749877929688;	223,75;	0,0;	0,0
220,005126953125;	199,25;	0,0;	0,0
220,0427703857422;	207,5;	0,0;	0,0
220,08038330078125;	208,5;	0,0;	0,0
220,11801147460938;	190,5;	0,0;	0,0
220,15562438964844;	174,25;	0,0;	0,0
220,19322204589844;	186,0;	0,0;	0,0
220,2308349609375;	190,25;	0,0;	0,0
220,2684326171875;	189,25;	0,0;	0,0
220,30601501464844;	190,75;	0,0;	0,0
220,34359741210938;	171,5;	0,0;	0,0
220,3811798095703;	178,5;	0,0;	0,0
220,4187469482422;	193,0;	0,0;	0,0
220,45631408691406;	179,0;	0,0;	0,0
220,49386596679688;	182,75;	0,0;	0,0
220,5314178466797;	194,75;	0,0;	0,0
220,56895446777344;	191,25;	0,0;	0,0
220,6064910888672;	186,0;	0,0;	0,0
220,64402770996094;	194,0;	0,0;	0,0
220,68154907226562;	175,25;	0,0;	0,0
220,71908569335938;	190,25;	0,0;	0,0
220,75657653808594;	192,0;	0,0;	0,0
220,79408264160156;	185,0;	0,0;	0,0
220,8315887451172;	191,5;	0,0;	0,0
220,8690948486328;	184,0;	0,0;	0,0
220,9065704345703;	193,5;	0,0;	0,0
220,94406127929688;	194,0;	0,0;	0,0
220,98153686523438;	193,0;	0,0;	0,0
221,01898193359375;	188,25;	0,0;	0,0
221,05645751953125;	187,0;	0,0;	0,0
221,0939178466797;	180,75;	0,0;	0,0
221,13137817382812;	188,0;	0,0;	0,0
221,16879272460938;	177,0;	0,0;	0,0
221,2062530517578;	183,0;	0,0;	0,0
221,24366760253906;	189,0;	0,0;	0,0
221,28109741210938;	211,25;	0,0;	0,0
221,3185272216797;	214,5;	0,0;	0,0
221,35592651367188;	194,0;	0,0;	0,0
221,393310546875;	218,5;	0,0;	0,0
221,43072509765625;	204,0;	0,0;	0,0
221,46812438964844;	189,0;	0,0;	0,0
221,50550842285156;	171,75;	0,0;	0,0
221,54287719726562;	181,5;	0,0;	0,0
221,5802459716797;	200,75;	0,0;	0,0
221,6176300048828;	196,5;	0,0;	0,0
221,65499877929688;	180,0;	0,0;	0,0
221,6923370361328;	173,75;	0,0;	0,0
221,72967529296875;	197,25;	0,0;	0,0
221,76702880859375;	206,25;	0,0;	0,0
221,8043670654297;	194,75;	0,0;	0,0
221,8416748046875;	202,0;	0,0;	0,0
221,87901306152344;	175,75;	0,0;	0,0
221,91632080078125;	205,0;	0,0;	0,0
221,95364379882812;	225,5;	0,0;	0,0
221,99095153808594;	228,75;	0,0;	0,0
222,02822875976562;	214,0;	0,0;	0,0
222,06552124023438;	196,75;	0,0;	0,0
222,10281372070312;	189,5;	0,0;	0,0
222,1400909423828;	183,25;	0,0;	0,0
222,1773681640625;	192,75;	0,0;	0,0
222,21463012695312;	202,0;	0,0;	0,0
222,2518768310547;	179,25;	0,0;	0,0
222,2891387939453;	188,75;	0,0;	0,0
222,3263702392578;	199,5;	0,0;	0,0
222,36363220214844;	178,25;	0,0;	0,0
222,40084838867188;	187,0;	0,0;	0,0
222,43807983398438;	187,5;	0,0;	0,0
222,47531127929688;	196,25;	0,0;	0,0
222,51251220703125;	197,75;	0,0;	0,0
222,5497283935547;	175,0;	0,0;	0,0
222,58692932128906;	184,5;	0,0;	0,0
222,62413024902344;	170,75;	0,0;	0,0
222,6613006591797;	203,5;	0,0;	0,0
222,698486328125;	206,25;	0,0;	0,0
222,73565673828125;	198,0;	0,0;	0,0
222,7728271484375;	180,25;	0,0;	0,0
222,8100128173828;	180,75;	0,0;	0,0
222,84715270996094;	185,75;	0,0;	0,0
222,88429260253906;	183,5;	0,0;	0,0
222,92144775390625;	213,5;	0,0;	0,0
222,95858764648438;	202,5;	0,0;	0,0
222,99569702148438;	182,75;	0,0;	0,0
223,03285217285156;	180,25;	0,0;	0,0
223,0699462890625;	190,75;	0,0;	0,0
223,10707092285156;	187,75;	0,0;	0,0
223,14418029785156;	202,25;	0,0;	0,0
223,1812744140625;	180,75;	0,0;	0,0
223,21836853027344;	174,0;	0,0;	0,0
223,2554473876953;	184,75;	0,0;	0,0
223,29254150390625;	195,75;	0,0;	0,0
223,32960510253906;	224,0;	0,0;	0,0
223,36666870117188;	206,25;	0,0;	0,0
223,4037322998047;	173,0;	0,0;	0,0
223,44078063964844;	180,75;	0,0;	0,0
223,4778289794922;	181,25;	0,0;	0,0
223,51487731933594;	176,0;	0,0;	0,0
223,55189514160156;	180,0;	0,0;	0,0
223,58892822265625;	177,0;	0,0;	0,0
223,62596130371094;	191,25;	0,0;	0,0
223,6629638671875;	191,0;	0,0;	0,0
223,69998168945312;	197,0;	0,0;	0,0
223,7369842529297;	196,5;	0,0;	0,0
223,77398681640625;	189,5;	0,0;	0,0
223,81097412109375;	181,5;	0,0;	0,0
223,84796142578125;	183,0;	0,0;	0,0
223,8849334716797;	193,5;	0,0;	0,0
223,92190551757812;	200,75;	0,0;	0,0
223,95887756347656;	178,75;	0,0;	0,0
223,99581909179688;	193,75;	0,0;	0,0
224,0327606201172;	199,0;	0,0;	0,0
224,06973266601562;	180,25;	0,0;	0,0
224,10667419433594;	187,75;	0,0;	0,0
224,14358520507812;	176,75;	0,0;	0,0
224,18052673339844;	204,25;	0,0;	0,0
224,21743774414062;	191,0;	0,0;	0,0
224,25436401367188;	195,0;	0,0;	0,0
224,291259765625;	179,75;	0,0;	0,0
224,32815551757812;	183,75;	0,0;	0,0
224,36505126953125;	180,0;	0,0;	0,0
224,4019317626953;	187,5;	0,0;	0,0
224,43882751464844;	186,5;	0,0;	0,0
224,47569274902344;	214,75;	0,0;	0,0
224,5125732421875;	207,75;	0,0;	0,0
224,54942321777344;	181,0;	0,0;	0,0
224,58627319335938;	203,25;	0,0;	0,0
224,6231231689453;	215,25;	0,0;	0,0
224,6599578857422;	200,25;	0,0;	0,0
224,69679260253906;	213,75;	0,0;	0,0
224,73362731933594;	189,5;	0,0;	0,0
224,7704620361328;	202,0;	0,0;	0,0
224,80726623535156;	206,5;	0,0;	0,0
224,84408569335938;	240,0;	0,0;	0,0
224,88087463378906;	241,25;	0,0;	0,0
224,91769409179688;	210,75;	0,0;	0,0
224,9544677734375;	214,0;	0,0;	0,0
224,99127197265625;	209,75;	0,0;	0,0
225,0280303955078;	220,0;	0,0;	0,0
225,06480407714844;	221,0;	0,0;	0,0
225,10157775878906;	232,25;	0,0;	0,0
225,13833618164062;	208,0;	0,0;	0,0
225,17507934570312;	213,75;	0,0;	0,0
225,2118377685547;	201,5;	0,0;	0,0
225,24856567382812;	234,5;	0,0;	0,0
225,28529357910156;	193,0;	0,0;	0,0
225,322021484375;	182,5;	0,0;	0,0
225,35874938964844;	193,25;	0,0;	0,0
225,3954620361328;	184,25;	0,0;	0,0
225,4321746826172;	197,25;	0,0;	0,0
225,46885681152344;	217,5;	0,0;	0,0
225,50555419921875;	213,25;	0,0;	0,0
225,54225158691406;	207,0;	0,0;	0,0
225,5789337158203;	197,5;	0,0;	0,0
225,6156005859375;	185,5;	0,0;	0,0
225,65228271484375;	190,25;	0,0;	0,0
225,68893432617188;	200,5;	0,0;	0,0
225,7255859375;	197,5;	0,0;	0,0
225,76223754882812;	176,75;	0,0;	0,0
225,7988739013672;	179,25;	0,0;	0,0
225,83551025390625;	174,0;	0,0;	0,0
225,8721466064453;	220,75;	0,0;	0,0
225,9087677001953;	225,25;	0,0;	0,0
225,9453887939453;	237,75;	0,0;	0,0
225,98199462890625;	207,0;	0,0;	0,0
226,01858520507812;	180,0;	0,0;	0,0
226,05520629882812;	193,25;	0,0;	0,0
226,09178161621094;	183,0;	0,0;	0,0
226,1283721923828;	184,75;	0,0;	0,0
226,16493225097656;	195,0;	0,0;	0,0
226,20152282714844;	197,5;	0,0;	0,0
226,2380828857422;	196,0;	0,0;	0,0
226,27464294433594;	204,0;	0,0;	0,0
226,31118774414062;	184,75;	0,0;	0,0
226,3477325439453;	203,5;	0,0;	0,0
226,38427734375;	199,75;	0,0;	0,0
226,42079162597656;	208,0;	0,0;	0,0
226,45733642578125;	180,5;	0,0;	0,0
226,4938507080078;	168,75;	0,0;	0,0
226,53036499023438;	202,75;	0,0;	0,0
226,56687927246094;	191,25;	0,0;	0,0
226,60337829589844;	197,0;	0,0;	0,0
226,63986206054688;	215,25;	0,0;	0,0
226,6763458251953;	241,75;	0,0;	0,0
226,7128448486328;	216,75;	0,0;	0,0
226,7493133544922;	223,0;	0,0;	0,0
226,7857666015625;	183,0;	0,0;	0,0
226,8222198486328;	185,5;	0,0;	0,0
226,8586883544922;	197,25;	0,0;	0,0
226,8951416015625;	184,75;	0,0;	0,0
226,93157958984375;	184,0;	0,0;	0,0
226,96800231933594;	182,5;	0,0;	0,0
227,0044403076172;	194,25;	0,0;	0,0
227,04087829589844;	193,0;	0,0;	0,0
227,0772705078125;	197,75;	0,0;	0,0
227,1136932373047;	206,5;	0,0;	0,0
227,15008544921875;	194,25;	0,0;	0,0
227,18649291992188;	177,0;	0,0;	0,0
227,22286987304688;	176,0;	0,0;	0,0
227,25924682617188;	196,75;	0,0;	0,0
227,29562377929688;	186,75;	0,0;	0,0
227,33200073242188;	195,0;	0,0;	0,0
227,3683624267578;	201,0;	0,0;	0,0
227,40472412109375;	187,0;	0,0;	0,0
227,44107055664062;	186,25;	0,0;	0,0
227,47740173339844;	212,25;	0,0;	0,0
227,51376342773438;	213,0;	0,0;	0,0
227,55007934570312;	206,5;	0,0;	0,0
227,58641052246094;	206,0;	0,0;	0,0
227,6227264404297;	193,5;	0,0;	0,0
227,65904235839844;	186,5;	0,0;	0,0
227,6953582763672;	195,0;	0,0;	0,0
227,73162841796875;	192,25;	0,0;	0,0
227,76792907714844;	172,0;	0,0;	0,0
227,80421447753906;	187,25;	0,0;	0,0
227,8404998779297;	187,75;	0,0;	0,0
227,87677001953125;	192,5;	0,0;	0,0
227,9130401611328;	235,0;	0,0;	0,0
227,94927978515625;	236,5;	0,0;	0,0
227,9855499267578;	199,0;	0,0;	0,0
228,0218048095703;	182,25;	0,0;	0,0
228,0580291748047;	174,25;	0,0;	0,0
228,09425354003906;	189,0;	0,0;	0,0
228,1304931640625;	180,75;	0,0;	0,0
228,16671752929688;	180,0;	0,0;	0,0
228,20291137695312;	176,0;	0,0;	0,0
228,2391357421875;	189,5;	0,0;	0,0
228,27532958984375;	214,5;	0,0;	0,0
228,3115234375;	234,75;	0,0;	0,0
228,3477325439453;	214,0;	0,0;	0,0
228,38389587402344;	177,5;	0,0;	0,0
228,42005920410156;	196,25;	0,0;	0,0
228,45623779296875;	192,75;	0,0;	0,0
228,49241638183594;	195,75;	0,0;	0,0
228,52854919433594;	188,0;	0,0;	0,0
228,56471252441406;	184,25;	0,0;	0,0
228,60084533691406;	183,5;	0,0;	0,0
228,63697814941406;	226,25;	0,0;	0,0
228,673095703125;	228,25;	0,0;	0,0
228,709228515625;	200,5;	0,0;	0,0
228,74533081054688;	197,5;	0,0;	0,0
228,78146362304688;	194,25;	0,0;	0,0
228,81756591796875;	198,5;	0,0;	0,0
228,85365295410156;	163,0;	0,0;	0,0
228,88973999023438;	188,75;	0,0;	0,0
228,9258270263672;	184,25;	0,0;	0,0
228,96189880371094;	192,5;	0,0;	0,0
228,9979705810547;	176,75;	0,0;	0,0
229,03402709960938;	199,5;	0,0;	0,0
229,07008361816406;	174,25;	0,0;	0,0
229,10614013671875;	178,0;	0,0;	0,0
229,14218139648438;	172,25;	0,0;	0,0
229,17822265625;	202,75;	0,0;	0,0
229,21424865722656;	189,25;	0,0;	0,0
229,25027465820312;	219,0;	0,0;	0,0
229,28628540039062;	191,5;	0,0;	0,0
229,32229614257812;	216,5;	0,0;	0,0
229,35830688476562;	214,25;	0,0;	0,0
229,39430236816406;	203,5;	0,0;	0,0
229,4302978515625;	183,5;	0,0;	0,0
229,46629333496094;	190,75;	0,0;	0,0
229,50225830078125;	181,75;	0,0;	0,0
229,53822326660156;	175,0;	0,0;	0,0
229,57420349121094;	176,75;	0,0;	0,0
229,6101531982422;	175,75;	0,0;	0,0
229,64610290527344;	193,25;	0,0;	0,0
229,6820526123047;	235,25;	0,0;	0,0
229,71798706054688;	253,0;	0,0;	0,0
229,75392150878906;	260,25;	0,0;	0,0
229,7898406982422;	219,75;	0,0;	0,0
229,8257598876953;	188,0;	0,0;	0,0
229,86167907714844;	207,0;	0,0;	0,0
229,8975830078125;	205,0;	0,0;	0,0
229,93348693847656;	197,0;	0,0;	0,0
229,9693603515625;	190,25;	0,0;	0,0
230,00526428222656;	213,5;	0,0;	0,0
230,0411376953125;	185,5;	0,0;	0,0
230,07701110839844;	192,5;	0,0;	0,0
230,1128692626953;	206,0;	0,0;	0,0
230,1487274169922;	198,5;	0,0;	0,0
230,18458557128906;	174,75;	0,0;	0,0
230,22044372558594;	196,75;	0,0;	0,0
230,25628662109375;	188,25;	0,0;	0,0
230,29209899902344;	186,5;	0,0;	0,0
230,3279266357422;	183,25;	0,0;	0,0
230,36375427246094;	203,75;	0,0;	0,0
230,39956665039062;	203,75;	0,0;	0,0
230,4353790283203;	200,5;	0,0;	0,0
230,47119140625;	174,25;	0,0;	0,0
230,5069580078125;	180,0;	0,0;	0,0
230,5427703857422;	184,75;	0,0;	0,0
230,57855224609375;	198,25;	0,0;	0,0
230,6143035888672;	191,75;	0,0;	0,0
230,6500701904297;	177,5;	0,0;	0,0
230,6858367919922;	181,0;	0,0;	0,0
230,7216033935547;	180,75;	0,0;	0,0
230,75733947753906;	210,5;	0,0;	0,0
230,7930908203125;	194,25;	0,0;	0,0
230,8288116455078;	217,25;	0,0;	0,0
230,8645477294922;	197,0;	0,0;	0,0
230,90025329589844;	182,25;	0,0;	0,0
230,9359893798828;	186,75;	0,0;	0,0
230,97169494628906;	201,5;	0,0;	0,0
231,00738525390625;	191,0;	0,0;	0,0
231,0430908203125;	209,0;	0,0;	0,0
231,0787811279297;	203,5;	0,0;	0,0
231,1144561767578;	187,25;	0,0;	0,0
231,15013122558594;	199,25;	0,0;	0,0
231,18580627441406;	200,5;	0,0;	0,0
231,22145080566406;	221,0;	0,0;	0,0
231,2571258544922;	231,25;	0,0;	0,0
231,2927703857422;	207,0;	0,0;	0,0
231,32839965820312;	198,5;	0,0;	0,0
231,36404418945312;	179,75;	0,0;	0,0
231,39967346191406;	177,0;	0,0;	0,0
231,43528747558594;	186,5;	0,0;	0,0
231,4709014892578;	190,5;	0,0;	0,0
231,50653076171875;	184,75;	0,0;	0,0
231,5421142578125;	179,75;	0,0;	0,0
231,5777130126953;	181,5;	0,0;	0,0
231,61329650878906;	186,25;	0,0;	0,0
231,64889526367188;	199,25;	0,0;	0,0
231,68447875976562;	195,75;	0,0;	0,0
231,7200469970703;	192,25;	0,0;	0,0
231,75558471679688;	194,25;	0,0;	0,0
231,79115295410156;	197,5;	0,0;	0,0
231,8267059326172;	181,0;	0,0;	0,0
231,86224365234375;	181,75;	0,0;	0,0
231,8977813720703;	191,5;	0,0;	0,0
231,9333038330078;	216,5;	0,0;	0,0
231,96884155273438;	226,75;	0,0;	0,0
232,00436401367188;	187,5;	0,0;	0,0
232,03985595703125;	197,75;	0,0;	0,0
232,0753631591797;	197,25;	0,0;	0,0
232,11087036132812;	207,25;	0,0;	0,0
232,14634704589844;	168,25;	0,0;	0,0
232,18182373046875;	201,75;	0,0;	0,0
232,21731567382812;	179,75;	0,0;	0,0
232,25277709960938;	169,5;	0,0;	0,0
232,2882537841797;	182,0;	0,0;	0,0
232,32369995117188;	195,5;	0,0;	0,0
232,35914611816406;	188,75;	0,0;	0,0
232,3945770263672;	172,25;	0,0;	0,0
232,43002319335938;	195,25;	0,0;	0,0
232,4654541015625;	209,5;	0,0;	0,0
232,50086975097656;	204,75;	0,0;	0,0
232,53628540039062;	197,75;	0,0;	0,0
232,5717010498047;	217,5;	0,0;	0,0
232,6071014404297;	257,5;	0,0;	0,0
232,6425018310547;	393,25;	0,0;	0,0
232,67788696289062;	371,75;	0,0;	0,0
232,71327209472656;	253,25;	0,0;	0,0
232,7486572265625;	205,75;	0,0;	0,0
232,78402709960938;	187,75;	0,0;	0,0
232,8193817138672;	184,5;	0,0;	0,0
232,85475158691406;	195,25;	0,0;	0,0
232,8900909423828;	192,0;	0,0;	0,0
232,92544555664062;	190,25;	0,0;	0,0
232,9607696533203;	193,25;	0,0;	0,0
232,99610900878906;	230,25;	0,0;	0,0
233,0314178466797;	401,0;	0,0;	0,0
233,06675720214844;	411,0;	0,0;	0,0
233,10206604003906;	278,5;	0,0;	0,0
233,1373748779297;	272,5;	0,0;	0,0
233,1726531982422;	564,5;	0,0;	0,0
233,20794677734375;	690,0;	0,0;	0,0
233,2432403564453;	330,5;	0,0;	0,0
233,27850341796875;	222,25;	0,0;	0,0
233,31378173828125;	202,25;	0,0;	0,0
233,3490447998047;	193,75;	0,0;	0,0
233,38430786132812;	185,5;	0,0;	0,0
233,41954040527344;	198,25;	0,0;	0,0
233,45480346679688;	186,5;	0,0;	0,0
233,49002075195312;	187,0;	0,0;	0,0
233,5252685546875;	181,25;	0,0;	0,0
233,56048583984375;	218,75;	0,0;	0,0
233,595703125;	204,0;	0,0;	0,0
233,63092041015625;	195,25;	0,0;	0,0
233,66610717773438;	268,0;	0,0;	0,0
233,70130920410156;	521,0;	0,0;	0,0
233,7364959716797;	483,75;	0,0;	0,0
233,77169799804688;	269,5;	0,0;	0,0
233,80686950683594;	203,5;	0,0;	0,0
233,84202575683594;	225,5;	0,0;	0,0
233,87721252441406;	211,0;	0,0;	0,0
233,912353515625;	193,25;	0,0;	0,0
233,947509765625;	213,25;	0,0;	0,0
233,98265075683594;	230,25;	0,0;	0,0
234,01779174804688;	209,75;	0,0;	0,0
234,05291748046875;	205,0;	0,0;	0,0
234,08804321289062;	227,5;	0,0;	0,0
234,12315368652344;	233,5;	0,0;	0,0
234,1582794189453;	228,0;	0,0;	0,0
234,19337463378906;	297,75;	0,0;	0,0
234,2284698486328;	516,5;	0,0;	0,0
234,2635498046875;	1055,25;	0,0;	0,0
234,29864501953125;	844,75;	0,0;	0,0
234,33372497558594;	721,5;	0,0;	0,0
234,36878967285156;	473,75;	0,0;	0,0
234,4038543701172;	277,75;	0,0;	0,0
234,43890380859375;	299,0;	0,0;	0,0
234,47396850585938;	280,75;	0,0;	0,0
234,50900268554688;	208,25;	0,0;	0,0
234,54405212402344;	207,25;	0,0;	0,0
234,5790557861328;	230,25;	0,0;	0,0
234,6140899658203;	233,5;	0,0;	0,0
234,6491241455078;	266,25;	0,0;	0,0
234,68411254882812;	388,0;	0,0;	0,0
234,7191162109375;	842,0;	0,0;	0,0
234,75411987304688;	932,5;	0,0;	0,0
234,7891082763672;	445,25;	0,0;	0,0
234,82408142089844;	243,5;	0,0;	0,0
234,85906982421875;	204,0;	0,0;	0,0
234,89402770996094;	215,5;	0,0;	0,0
234,9290008544922;	209,75;	0,0;	0,0
234,96395874023438;	208,5;	0,0;	0,0
234,9989013671875;	244,75;	0,0;	0,0
235,03384399414062;	270,5;	0,0;	0,0
235,0687713623047;	222,75;	0,0;	0,0
235,10372924804688;	189,75;	0,0;	0,0
235,13864135742188;	209,25;	0,0;	0,0
235,17355346679688;	221,75;	0,0;	0,0
235,2084503173828;	207,25;	0,0;	0,0
235,2433624267578;	206,75;	0,0;	0,0
235,27825927734375;	220,25;	0,0;	0,0
235,3131561279297;	227,5;	0,0;	0,0
235,3480224609375;	253,25;	0,0;	0,0
235,38290405273438;	351,0;	0,0;	0,0
235,41778564453125;	343,75;	0,0;	0,0
235,45262145996094;	257,5;	0,0;	0,0
235,4875030517578;	235,25;	0,0;	0,0
235,5223388671875;	212,0;	0,0;	0,0
235,5571746826172;	200,5;	0,0;	0,0
235,59202575683594;	208,25;	0,0;	0,0
235,62684631347656;	212,25;	0,0;	0,0
235,66165161132812;	220,0;	0,0;	0,0
235,6964874267578;	187,5;	0,0;	0,0
235,73130798339844;	218,25;	0,0;	0,0
235,76608276367188;	266,5;	0,0;	0,0
235,80087280273438;	444,5;	0,0;	0,0
235,83566284179688;	596,5;	0,0;	0,0
235,87046813964844;	483,75;	0,0;	0,0
235,90524291992188;	744,0;	0,0;	0,0
235,94000244140625;	758,75;	0,0;	0,0
235,97474670410156;	416,25;	0,0;	0,0
236,00950622558594;	262,25;	0,0;	0,0
236,0442657470703;	213,25;	0,0;	0,0
236,07899475097656;	305,0;	0,0;	0,0
236,1137237548828;	338,25;	0,0;	0,0
236,14846801757812;	255,5;	0,0;	0,0
236,1831817626953;	222,5;	0,0;	0,0
236,21792602539062;	198,0;	0,0;	0,0
236,2526092529297;	236,5;	0,0;	0,0
236,28729248046875;	280,0;	0,0;	0,0
236,32199096679688;	286,75;	0,0;	0,0
236,356689453125;	388,75;	0,0;	0,0
236,391357421875;	574,5;	0,0;	0,0
236,426025390625;	458,25;	0,0;	0,0
236,46070861816406;	262,0;	0,0;	0,0
236,49537658691406;	228,75;	0,0;	0,0
236,53001403808594;	238,25;	0,0;	0,0
236,56466674804688;	278,75;	0,0;	0,0
236,59930419921875;	273,0;	0,0;	0,0
236,63394165039062;	214,5;	0,0;	0,0
236,6685791015625;	212,25;	0,0;	0,0
236,70318603515625;	218,5;	0,0;	0,0
236,73779296875;	308,25;	0,0;	0,0
236,77239990234375;	462,5;	0,0;	0,0
236,8070068359375;	320,25;	0,0;	0,0
236,8415985107422;	234,5;	0,0;	0,0
236,87615966796875;	245,75;	0,0;	0,0
236,91075134277344;	277,0;	0,0;	0,0
236,94534301757812;	301,25;	0,0;	0,0
236,9799041748047;	290,5;	0,0;	0,0
237,0144500732422;	215,75;	0,0;	0,0
237,0489959716797;	213,25;	0,0;	0,0
237,08355712890625;	215,0;	0,0;	0,0
237,11810302734375;	228,5;	0,0;	0,0
237,1526336669922;	220,25;	0,0;	0,0
237,1871337890625;	221,25;	0,0;	0,0
237,22166442871094;	264,0;	0,0;	0,0
237,25619506835938;	467,5;	0,0;	0,0
237,2906951904297;	605,75;	0,0;	0,0
237,3251953125;	337,0;	0,0;	0,0
237,3596649169922;	251,0;	0,0;	0,0
237,39414978027344;	301,0;	0,0;	0,0
237,42864990234375;	450,25;	0,0;	0,0
237,46310424804688;	310,25;	0,0;	0,0
237,49755859375;	206,0;	0,0;	0,0
237,5320281982422;	271,0;	0,0;	0,0
237,5664825439453;	277,0;	0,0;	0,0
237,60092163085938;	240,0;	0,0;	0,0
237,63536071777344;	208,5;	0,0;	0,0
237,66978454589844;	205,5;	0,0;	0,0
237,7042236328125;	198,0;	0,0;	0,0
237,73863220214844;	210,5;	0,0;	0,0
237,77304077148438;	218,0;	0,0;	0,0
237,80743408203125;	361,75;	0,0;	0,0
237,84182739257812;	492,25;	0,0;	0,0
237,876220703125;	319,5;	0,0;	0,0
237,9105987548828;	242,75;	0,0;	0,0
237,94497680664062;	349,5;	0,0;	0,0
237,97935485839844;	545,25;	0,0;	0,0
238,0137176513672;	427,0;	0,0;	0,0
238,04808044433594;	453,25;	0,0;	0,0
238,08242797851562;	1000,75;	0,0;	0,0
238,1167449951172;	1597,25;	0,0;	0,0
238,15109252929688;	911,0;	0,0;	0,0
238,1854248046875;	505,5;	0,0;	0,0
238,21974182128906;	537,5;	0,0;	0,0
238,25404357910156;	459,75;	0,0;	0,0
238,28836059570312;	265,5;	0,0;	0,0
238,3226776123047;	321,5;	0,0;	0,0
238,35696411132812;	369,75;	0,0;	0,0
238,39125061035156;	283,25;	0,0;	0,0
238,42552185058594;	235,25;	0,0;	0,0
238,45980834960938;	199,75;	0,0;	0,0
238,49407958984375;	197,75;	0,0;	0,0
238,52833557128906;	199,25;	0,0;	0,0
238,5625762939453;	186,0;	0,0;	0,0
238,59683227539062;	197,0;	0,0;	0,0
238,63107299804688;	210,25;	0,0;	0,0
238,66531372070312;	249,75;	0,0;	0,0
238,69952392578125;	272,0;	0,0;	0,0
238,73374938964844;	520,0;	0,0;	0,0
238,76795959472656;	869,0;	0,0;	0,0
238,8021697998047;	531,0;	0,0;	0,0
238,83636474609375;	272,25;	0,0;	0,0
238,8705596923828;	216,5;	0,0;	0,0
238,9047393798828;	237,5;	0,0;	0,0
238,93893432617188;	207,5;	0,0;	0,0
238,9730987548828;	207,0;	0,0;	0,0
239,00723266601562;	198,0;	0,0;	0,0
239,04141235351562;	225,75;	0,0;	0,0
239,07557678222656;	232,75;	0,0;	0,0
239,10972595214844;	191,75;	0,0;	0,0
239,1438446044922;	193,0;	0,0;	0,0
239,177978515625;	198,0;	0,0;	0,0
239,21209716796875;	209,75;	0,0;	0,0
239,24623107910156;	214,25;	0,0;	0,0
239,28033447265625;	210,75;	0,0;	0,0
239,31442260742188;	227,0;	0,0;	0,0
239,34852600097656;	254,0;	0,0;	0,0
239,3826141357422;	293,75;	0,0;	0,0
239,41671752929688;	583,0;	0,0;	0,0
239,45077514648438;	1277,75;	0,0;	0,0
239,48484802246094;	1217,5;	0,0;	0,0
239,51890563964844;	527,0;	0,0;	0,0
239,55296325683594;	299,75;	0,0;	0,0
239,58700561523438;	251,5;	0,0;	0,0
239,6210479736328;	224,25;	0,0;	0,0
239,65509033203125;	218,25;	0,0;	0,0
239,68911743164062;	198,0;	0,0;	0,0
239,72315979003906;	217,25;	0,0;	0,0
239,7571563720703;	261,25;	0,0;	0,0
239,79116821289062;	500,5;	0,0;	0,0
239,82516479492188;	807,0;	0,0;	0,0
239,85916137695312;	567,0;	0,0;	0,0
239,8931427001953;	311,0;	0,0;	0,0
239,9271240234375;	303,0;	0,0;	0,0
239,9611053466797;	268,75;	0,0;	0,0
239,9950714111328;	224,5;	0,0;	0,0
240,0290069580078;	217,0;	0,0;	0,0
240,06297302246094;	214,0;	0,0;	0,0
240,096923828125;	231,5;	0,0;	0,0
240,130859375;	239,75;	0,0;	0,0
240,16481018066406;	252,75;	0,0;	0,0
240,19871520996094;	218,0;	0,0;	0,0
240,23263549804688;	225,5;	0,0;	0,0
240,26654052734375;	217,75;	0,0;	0,0
240,3004608154297;	307,75;	0,0;	0,0
240,3343505859375;	552,75;	0,0;	0,0
240,3682403564453;	1058,5;	0,0;	0,0
240,40213012695312;	1080,25;	0,0;	0,0
240,43600463867188;	564,25;	0,0;	0,0
240,4698944091797;	327,75;	0,0;	0,0
240,5037384033203;	297,75;	0,0;	0,0
240,53759765625;	505,25;	0,0;	0,0
240,5714569091797;	873,5;	0,0;	0,0
240,6053009033203;	540,5;	0,0;	0,0
240,63912963867188;	286,25;	0,0;	0,0
240,67294311523438;	226,75;	0,0;	0,0
240,706787109375;	226,0;	0,0;	0,0
240,7406005859375;	207,25;	0,0;	0,0
240,7744140625;	209,75;	0,0;	0,0
240,80819702148438;	222,0;	0,0;	0,0
240,8419952392578;	232,75;	0,0;	0,0
240,87579345703125;	257,0;	0,0;	0,0
240,90957641601562;	446,0;	0,0;	0,0
240,94334411621094;	931,25;	0,0;	0,0
240,9770965576172;	989,5;	0,0;	0,0
241,0108642578125;	834,75;	0,0;	0,0
241,0446319580078;	443,0;	0,0;	0,0
241,078369140625;	254,5;	0,0;	0,0
241,1121063232422;	247,5;	0,0;	0,0
241,14584350585938;	254,25;	0,0;	0,0
241,1795654296875;	289,25;	0,0;	0,0
241,21328735351562;	543,5;	0,0;	0,0
241,24700927734375;	571,25;	0,0;	0,0
241,28070068359375;	314,75;	0,0;	0,0
241,3144073486328;	228,5;	0,0;	0,0
241,34811401367188;	197,5;	0,0;	0,0
241,38177490234375;	226,75;	0,0;	0,0
241,4154510498047;	186,5;	0,0;	0,0
241,4491424560547;	207,25;	0,0;	0,0
241,48280334472656;	211,75;	0,0;	0,0
241,51646423339844;	206,75;	0,0;	0,0
241,55010986328125;	222,75;	0,0;	0,0
241,583740234375;	208,25;	0,0;	0,0
241,6173858642578;	215,0;	0,0;	0,0
241,65103149414062;	244,75;	0,0;	0,0
241,6846466064453;	290,25;	0,0;	0,0
241,71826171875;	280,25;	0,0;	0,0
241,75186157226562;	212,0;	0,0;	0,0
241,7854766845703;	196,5;	0,0;	0,0
241,81907653808594;	193,75;	0,0;	0,0
241,8526611328125;	178,5;	0,0;	0,0
241,88623046875;	201,5;	0,0;	0,0
241,91981506347656;	197,0;	0,0;	0,0
241,95338439941406;	205,75;	0,0;	0,0
241,9869384765625;	199,75;	0,0;	0,0
242,02049255371094;	178,25;	0,0;	0,0
242,0540313720703;	193,75;	0,0;	0,0
242,08758544921875;	190,0;	0,0;	0,0
242,1211395263672;	208,75;	0,0;	0,0
242,15464782714844;	241,75;	0,0;	0,0
242,1881561279297;	251,0;	0,0;	0,0
242,2216796875;	252,75;	0,0;	0,0
242,25518798828125;	243,5;	0,0;	0,0
242,28868103027344;	376,25;	0,0;	0,0
242,32217407226562;	485,25;	0,0;	0,0
242,35565185546875;	333,0;	0,0;	0,0
242,38914489746094;	240,75;	0,0;	0,0
242,422607421875;	222,75;	0,0;	0,0
242,45606994628906;	224,5;	0,0;	0,0
242,48951721191406;	211,0;	0,0;	0,0
242,52297973632812;	203,0;	0,0;	0,0
242,55642700195312;	185,25;	0,0;	0,0
242,58985900878906;	204,25;	0,0;	0,0
242,62327575683594;	222,75;	0,0;	0,0
242,65670776367188;	211,0;	0,0;	0,0
242,6901397705078;	236,5;	0,0;	0,0
242,72352600097656;	321,5;	0,0;	0,0
242,75692749023438;	319,5;	0,0;	0,0
242,7903289794922;	283,75;	0,0;	0,0
242,82373046875;	286,0;	0,0;	0,0
242,85711669921875;	304,25;	0,0;	0,0
242,89047241210938;	378,75;	0,0;	0,0
242,923828125;	398,75;	0,0;	0,0
242,9571990966797;	235,75;	0,0;	0,0
242,99057006835938;	213,5;	0,0;	0,0
243,02389526367188;	216,5;	0,0;	0,0
243,05723571777344;	221,25;	0,0;	0,0
243,09056091308594;	231,25;	0,0;	0,0
243,1239013671875;	371,25;	0,0;	0,0
243,1572265625;	357,25;	0,0;	0,0
243,19052124023438;	318,25;	0,0;	0,0
243,22381591796875;	260,0;	0,0;	0,0
243,2571258544922;	229,0;	0,0;	0,0
243,29042053222656;	245,0;	0,0;	0,0
243,32369995117188;	242,5;	0,0;	0,0
243,3569793701172;	381,0;	0,0;	0,0
243,39024353027344;	456,5;	0,0;	0,0
243,42352294921875;	334,0;	0,0;	0,0
243,45677185058594;	209,5;	0,0;	0,0
243,49002075195312;	211,25;	0,0;	0,0
243,52325439453125;	233,5;	0,0;	0,0
243,55648803710938;	230,25;	0,0;	0,0
243,58973693847656;	227,0;	0,0;	0,0
243,62295532226562;	238,75;	0,0;	0,0
243,65615844726562;	231,0;	0,0;	0,0
243,68936157226562;	212,25;	0,0;	0,0
243,7225799560547;	228,5;	0,0;	0,0
243,75575256347656;	210,5;	0,0;	0,0
243,78895568847656;	299,25;	0,0;	0,0
243,82212829589844;	456,0;	0,0;	0,0
243,85531616210938;	405,0;	0,0;	0,0
243,88848876953125;	353,75;	0,0;	0,0
243,921630859375;	298,75;	0,0;	0,0
243,95477294921875;	229,5;	0,0;	0,0
243,98793029785156;	194,5;	0,0;	0,0
244,0210723876953;	212,5;	0,0;	0,0
244,05419921875;	204,25;	0,0;	0,0
244,08731079101562;	194,75;	0,0;	0,0
244,12042236328125;	233,25;	0,0;	0,0
244,153564453125;	251,25;	0,0;	0,0
244,18667602539062;	244,25;	0,0;	0,0
244,21974182128906;	230,0;	0,0;	0,0
244,25282287597656;	195,25;	0,0;	0,0
244,28591918945312;	240,0;	0,0;	0,0
244,3190155029297;	376,5;	0,0;	0,0
244,35206604003906;	502,5;	0,0;	0,0
244,38511657714844;	364,5;	0,0;	0,0
244,41818237304688;	316,5;	0,0;	0,0
244,45123291015625;	408,5;	0,0;	0,0
244,48426818847656;	372,25;	0,0;	0,0
244,51730346679688;	317,75;	0,0;	0,0
244,55030822753906;	264,25;	0,0;	0,0
244,58334350585938;	239,25;	0,0;	0,0
244,61636352539062;	251,25;	0,0;	0,0
244,6493682861328;	282,0;	0,0;	0,0
244,68235778808594;	285,25;	0,0;	0,0
244,71536254882812;	229,5;	0,0;	0,0
244,7483367919922;	225,5;	0,0;	0,0
244,78131103515625;	195,0;	0,0;	0,0
244,81427001953125;	185,5;	0,0;	0,0
244,8472442626953;	201,0;	0,0;	0,0
244,88021850585938;	230,75;	0,0;	0,0
244,9131622314453;	236,25;	0,0;	0,0
244,94610595703125;	232,5;	0,0;	0,0
244,97901916503906;	200,75;	0,0;	0,0
245,01197814941406;	191,5;	0,0;	0,0
245,04489135742188;	202,25;	0,0;	0,0
245,0778045654297;	205,0;	0,0;	0,0
245,11070251464844;	203,25;	0,0;	0,0
245,14361572265625;	204,75;	0,0;	0,0
245,17649841308594;	203,75;	0,0;	0,0
245,2093963623047;	213,0;	0,0;	0,0
245,24227905273438;	242,5;	0,0;	0,0
245,27513122558594;	247,0;	0,0;	0,0
245,30799865722656;	256,75;	0,0;	0,0
245,34088134765625;	285,25;	0,0;	0,0
245,3737335205078;	256,5;	0,0;	0,0
245,40655517578125;	220,75;	0,0;	0,0
245,4394073486328;	206,0;	0,0;	0,0
245,47222900390625;	182,25;	0,0;	0,0
245,50506591796875;	210,5;	0,0;	0,0
245,5378875732422;	206,75;	0,0;	0,0
245,5706787109375;	228,25;	0,0;	0,0
245,60348510742188;	230,0;	0,0;	0,0
245,63629150390625;	238,0;	0,0;	0,0
245,66908264160156;	271,25;	0,0;	0,0
245,70184326171875;	226,75;	0,0;	0,0
245,73463439941406;	295,0;	0,0;	0,0
245,76739501953125;	412,0;	0,0;	0,0
245,80015563964844;	420,0;	0,0;	0,0
245,83291625976562;	259,0;	0,0;	0,0
245,8656463623047;	234,25;	0,0;	0,0
245,8983917236328;	212,0;	0,0;	0,0
245,93115234375;	273,5;	0,0;	0,0
245,9638671875;	299,5;	0,0;	0,0
245,99656677246094;	360,0;	0,0;	0,0
246,029296875;	405,0;	0,0;	0,0
246,06199645996094;	433,0;	0,0;	0,0
246,0946807861328;	470,25;	0,0;	0,0
246,12738037109375;	392,75;	0,0;	0,0
246,16006469726562;	426,5;	0,0;	0,0
246,19273376464844;	375,0;	0,0;	0,0
246,2254180908203;	307,5;	0,0;	0,0
246,25807189941406;	338,0;	0,0;	0,0
246,2907257080078;	334,75;	0,0;	0,0
246,32337951660156;	288,25;	0,0;	0,0
246,35601806640625;	267,0;	0,0;	0,0
246,38864135742188;	378,75;	0,0;	0,0
246,4212646484375;	387,0;	0,0;	0,0
246,45388793945312;	315,75;	0,0;	0,0
246,4865264892578;	313,5;	0,0;	0,0
246,51913452148438;	297,0;	0,0;	0,0
246,55174255371094;	362,75;	0,0;	0,0
246,5843048095703;	375,5;	0,0;	0,0
246,6168975830078;	256,75;	0,0;	0,0
246,6494903564453;	222,25;	0,0;	0,0
246,68202209472656;	228,0;	0,0;	0,0
246,714599609375;	259,75;	0,0;	0,0
246,74716186523438;	258,25;	0,0;	0,0
246,77972412109375;	277,25;	0,0;	0,0
246,81227111816406;	286,5;	0,0;	0,0
246,84478759765625;	290,0;	0,0;	0,0
246,8773193359375;	252,25;	0,0;	0,0
246,90985107421875;	274,5;	0,0;	0,0
246,94236755371094;	331,5;	0,0;	0,0
246,97488403320312;	368,25;	0,0;	0,0
247,00735473632812;	265,0;	0,0;	0,0
247,03985595703125;	208,0;	0,0;	0,0
247,07235717773438;	220,75;	0,0;	0,0
247,1048126220703;	272,75;	0,0;	0,0
247,1372833251953;	409,5;	0,0;	0,0
247,16976928710938;	484,0;	0,0;	0,0
247,2022247314453;	476,5;	0,0;	0,0
247,2346954345703;	369,75;	0,0;	0,0
247,26710510253906;	244,75;	0,0;	0,0
247,29954528808594;	214,75;	0,0;	0,0
247,3319854736328;	241,0;	0,0;	0,0
247,3644256591797;	341,25;	0,0;	0,0
247,39683532714844;	290,25;	0,0;	0,0
247,42922973632812;	274,75;	0,0;	0,0
247,46163940429688;	228,75;	0,0;	0,0
247,49403381347656;	244,5;	0,0;	0,0
247,52642822265625;	229,5;	0,0;	0,0
247,55882263183594;	265,5;	0,0;	0,0
247,59117126464844;	224,75;	0,0;	0,0
247,62353515625;	221,75;	0,0;	0,0
247,65589904785156;	228,25;	0,0;	0,0
247,688232421875;	248,75;	0,0;	0,0
247,7205810546875;	316,25;	0,0;	0,0
247,7529296875;	433,25;	0,0;	0,0
247,78526306152344;	337,25;	0,0;	0,0
247,81759643554688;	291,0;	0,0;	0,0
247,8498992919922;	429,25;	0,0;	0,0
247,88221740722656;	535,0;	0,0;	0,0
247,91452026367188;	485,5;	0,0;	0,0
247,9468231201172;	302,5;	0,0;	0,0
247,9791259765625;	236,0;	0,0;	0,0
248,01138305664062;	225,5;	0,0;	0,0
248,0436553955078;	223,0;	0,0;	0,0
248,07594299316406;	306,25;	0,0;	0,0
248,10816955566406;	389,25;	0,0;	0,0
248,1404266357422;	460,0;	0,0;	0,0
248,1726837158203;	546,25;	0,0;	0,0
248,20494079589844;	741,0;	0,0;	0,0
248,23716735839844;	894,5;	0,0;	0,0
248,2693634033203;	582,5;	0,0;	0,0
248,3015899658203;	520,5;	0,0;	0,0
248,3338165283203;	517,5;	0,0;	0,0
248,36602783203125;	304,0;	0,0;	0,0
248,39822387695312;	229,75;	0,0;	0,0
248,43038940429688;	211,25;	0,0;	0,0
248,46258544921875;	223,75;	0,0;	0,0
248,49476623535156;	284,25;	0,0;	0,0
248,52694702148438;	351,5;	0,0;	0,0
248,55911254882812;	358,75;	0,0;	0,0
248,5912322998047;	296,5;	0,0;	0,0
248,62339782714844;	276,25;	0,0;	0,0
248,65553283691406;	327,0;	0,0;	0,0
248,68765258789062;	630,75;	0,0;	0,0
248,71978759765625;	790,75;	0,0;	0,0
248,7519073486328;	461,25;	0,0;	0,0
248,78402709960938;	331,5;	0,0;	0,0
248,81613159179688;	381,0;	0,0;	0,0
248,84820556640625;	586,75;	0,0;	0,0
248,8802947998047;	647,75;	0,0;	0,0
248,9123992919922;	591,5;	0,0;	0,0
248,94448852539062;	731,25;	0,0;	0,0
248,97654724121094;	900,0;	0,0;	0,0
249,0085906982422;	735,25;	0,0;	0,0
249,0406494140625;	577,75;	0,0;	0,0
249,0727081298828;	363,25;	0,0;	0,0
249,104736328125;	278,5;	0,0;	0,0
249,13681030273438;	301,0;	0,0;	0,0
249,16879272460938;	451,0;	0,0;	0,0
249,20082092285156;	846,25;	0,0;	0,0
249,23284912109375;	953,0;	0,0;	0,0
249,2648162841797;	437,75;	0,0;	0,0
249,2968292236328;	278,0;	0,0;	0,0
249,32882690429688;	235,0;	0,0;	0,0
249,36080932617188;	201,0;	0,0;	0,0
249,39280700683594;	205,5;	0,0;	0,0
249,42474365234375;	201,25;	0,0;	0,0
249,4567108154297;	218,5;	0,0;	0,0
249,48867797851562;	231,5;	0,0;	0,0
249,5206298828125;	261,0;	0,0;	0,0
249,55258178710938;	277,25;	0,0;	0,0
249,58448791503906;	244,5;	0,0;	0,0
249,61642456054688;	243,25;	0,0;	0,0
249,6483612060547;	300,25;	0,0;	0,0
249,6802520751953;	346,0;	0,0;	0,0
249,71214294433594;	282,0;	0,0;	0,0
249,74404907226562;	327,25;	0,0;	0,0
249,7759552001953;	509,5;	0,0;	0,0
249,80784606933594;	463,0;	0,0;	0,0
249,83970642089844;	278,0;	0,0;	0,0
249,87158203125;	198,5;	0,0;	0,0
249,9034423828125;	193,0;	0,0;	0,0
249,935302734375;	215,75;	0,0;	0,0
249,9671630859375;	315,0;	0,0;	0,0
249,9989776611328;	430,5;	0,0;	0,0
250,03082275390625;	392,75;	0,0;	0,0
250,06265258789062;	261,0;	0,0;	0,0
250,09445190429688;	288,25;	0,0;	0,0
250,1262969970703;	300,5;	0,0;	0,0
250,1580810546875;	323,25;	0,0;	0,0
250,1898956298828;	282,75;	0,0;	0,0
250,22169494628906;	335,5;	0,0;	0,0
250,25344848632812;	369,0;	0,0;	0,0
250,2852325439453;	379,75;	0,0;	0,0
250,3170166015625;	260,5;	0,0;	0,0
250,34877014160156;	200,75;	0,0;	0,0
250,3805389404297;	216,25;	0,0;	0,0
250,41226196289062;	211,5;	0,0;	0,0
250,4440155029297;	226,75;	0,0;	0,0
250,4757537841797;	289,25;	0,0;	0,0
250,50747680664062;	304,75;	0,0;	0,0
250,53921508789062;	283,5;	0,0;	0,0
250,57090759277344;	258,75;	0,0;	0,0
250,6026153564453;	247,75;	0,0;	0,0
250,6343231201172;	220,0;	0,0;	0,0
250,66598510742188;	241,25;	0,0;	0,0
250,6976776123047;	251,25;	0,0;	0,0
250,72935485839844;	206,75;	0,0;	0,0
250,7610321044922;	219,75;	0,0;	0,0
250,79270935058594;	215,0;	0,0;	0,0
250,8243408203125;	215,5;	0,0;	0,0
250,85598754882812;	203,5;	0,0;	0,0
250,8876495361328;	209,25;	0,0;	0,0
250,91928100585938;	244,75;	0,0;	0,0
250,95091247558594;	324,5;	0,0;	0,0
250,98251342773438;	422,75;	0,0;	0,0
251,01412963867188;	403,75;	0,0;	0,0
251,0457305908203;	411,0;	0,0;	0,0
251,0773468017578;	511,25;	0,0;	0,0
251,10894775390625;	359,75;	0,0;	0,0
251,1405029296875;	285,75;	0,0;	0,0
251,17208862304688;	235,75;	0,0;	0,0
251,2036590576172;	206,5;	0,0;	0,0
251,23519897460938;	216,5;	0,0;	0,0
251,26675415039062;	222,25;	0,0;	0,0
251,29830932617188;	252,75;	0,0;	0,0
251,32986450195312;	320,25;	0,0;	0,0
251,3614044189453;	308,25;	0,0;	0,0
251,3928985595703;	245,25;	0,0;	0,0
251,4244384765625;	238,0;	0,0;	0,0
251,45594787597656;	214,25;	0,0;	0,0
251,48745727539062;	255,5;	0,0;	0,0
251,5189666748047;	278,5;	0,0;	0,0
251,55043029785156;	246,5;	0,0;	0,0
251,58192443847656;	253,5;	0,0;	0,0
251,6134033203125;	287,5;	0,0;	0,0
251,6448516845703;	298,75;	0,0;	0,0
251,67633056640625;	337,25;	0,0;	0,0
251,70777893066406;	393,75;	0,0;	0,0
251,73922729492188;	336,25;	0,0;	0,0
251,7706756591797;	275,25;	0,0;	0,0
251,8020782470703;	371,75;	0,0;	0,0
251,83351135253906;	294,0;	0,0;	0,0
251,8649444580078;	240,25;	0,0;	0,0
251,89637756347656;	220,5;	0,0;	0,0
251,9277801513672;	223,5;	0,0;	0,0
251,95913696289062;	261,25;	0,0;	0,0
251,9905548095703;	266,5;	0,0;	0,0
252,02194213867188;	328,0;	0,0;	0,0
252,05331420898438;	280,75;	0,0;	0,0
252,08470153808594;	324,25;	0,0;	0,0
252,11602783203125;	334,5;	0,0;	0,0
252,1473846435547;	499,75;	0,0;	0,0
252,1787567138672;	707,0;	0,0;	0,0
252,21005249023438;	607,25;	0,0;	0,0
252,24139404296875;	391,0;	0,0;	0,0
252,27272033691406;	368,75;	0,0;	0,0
252,30404663085938;	387,75;	0,0;	0,0
252,3353729248047;	374,5;	0,0;	0,0
252,3666534423828;	325,0;	0,0;	0,0
252,39794921875;	427,5;	0,0;	0,0
252,4292449951172;	613,25;	0,0;	0,0
252,46054077148438;	524,75;	0,0;	0,0
252,4918212890625;	439,75;	0,0;	0,0
252,52305603027344;	504,5;	0,0;	0,0
252,5543212890625;	420,75;	0,0;	0,0
252,58558654785156;	357,5;	0,0;	0,0
252,61680603027344;	504,25;	0,0;	0,0
252,64804077148438;	595,75;	0,0;	0,0
252,67929077148438;	411,75;	0,0;	0,0
252,71051025390625;	297,25;	0,0;	0,0
252,7417449951172;	276,25;	0,0;	0,0
252,77293395996094;	373,0;	0,0;	0,0
252,80413818359375;	540,25;	0,0;	0,0
252,83534240722656;	706,75;	0,0;	0,0
252,86654663085938;	676,5;	0,0;	0,0
252,89772033691406;	465,0;	0,0;	0,0
252,9288787841797;	326,0;	0,0;	0,0
252,9600372314453;	257,0;	0,0;	0,0
252,99122619628906;	251,25;	0,0;	0,0
253,02236938476562;	227,25;	0,0;	0,0
253,05352783203125;	234,0;	0,0;	0,0
253,0846405029297;	218,5;	0,0;	0,0
253,11578369140625;	243,0;	0,0;	0,0
253,1468963623047;	229,0;	0,0;	0,0
253,17799377441406;	241,5;	0,0;	0,0
253,2091064453125;	314,0;	0,0;	0,0
253,24020385742188;	436,75;	0,0;	0,0
253,2713165283203;	594,5;	0,0;	0,0
253,3024139404297;	468,0;	0,0;	0,0
253,33346557617188;	453,75;	0,0;	0,0
253,36453247070312;	416,5;	0,0;	0,0
253,39561462402344;	333,75;	0,0;	0,0
253,4266815185547;	372,25;	0,0;	0,0
253,45773315429688;	441,0;	0,0;	0,0
253,48875427246094;	350,75;	0,0;	0,0
253,51980590820312;	362,25;	0,0;	0,0
253,55084228515625;	476,25;	0,0;	0,0
253,5818328857422;	692,5;	0,0;	0,0
253,61285400390625;	588,0;	0,0;	0,0
253,64385986328125;	391,25;	0,0;	0,0
253,6748809814453;	314,5;	0,0;	0,0
253,70587158203125;	358,5;	0,0;	0,0
253,73683166503906;	503,75;	0,0;	0,0
253,767822265625;	750,0;	0,0;	0,0
253,79879760742188;	881,5;	0,0;	0,0
253,82977294921875;	562,75;	0,0;	0,0
253,8607177734375;	310,75;	0,0;	0,0
253,89166259765625;	269,75;	0,0;	0,0
253,922607421875;	285,0;	0,0;	0,0
253,95355224609375;	362,75;	0,0;	0,0
253,98448181152344;	470,75;	0,0;	0,0
254,01539611816406;	475,75;	0,0;	0,0
254,04629516601562;	392,75;	0,0;	0,0
254,07720947265625;	380,0;	0,0;	0,0
254,1081085205078;	407,25;	0,0;	0,0
254,13897705078125;	356,25;	0,0;	0,0
254,16986083984375;	271,75;	0,0;	0,0
254,2007598876953;	324,75;	0,0;	0,0
254,23162841796875;	380,5;	0,0;	0,0
254,2624969482422;	418,5;	0,0;	0,0
254,29331970214844;	376,5;	0,0;	0,0
254,3241729736328;	316,75;	0,0;	0,0
254,3550262451172;	299,75;	0,0;	0,0
254,38587951660156;	359,25;	0,0;	0,0
254,4167022705078;	358,25;	0,0;	0,0
254,44749450683594;	361,25;	0,0;	0,0
254,4783172607422;	377,75;	0,0;	0,0
254,50912475585938;	448,75;	0,0;	0,0
254,53990173339844;	399,0;	0,0;	0,0
254,5707244873047;	406,5;	0,0;	0,0
254,6014862060547;	353,0;	0,0;	0,0
254,63226318359375;	275,75;	0,0;	0,0
254,6630401611328;	281,75;	0,0;	0,0
254,69375610351562;	0,0;	0,0;	0,0
