0.0	0.0
Integration time [ms]:	1.05
Averaging Nr. [scans]:1
Smoothing Nr. [pixels]:0
Data measured with spectrometer [name]:b'1703277U8'
Wave	;Sample	;Dark	;Reference	;Scope	
[nm]	;[counts]	;[counts]	;[counts]	
 
493,2108154296875;	459,25;	0,0;	0,0
493,2895202636719;	383,75;	0,0;	0,0
493,36822509765625;	306,5;	0,0;	0,0
493,4468994140625;	274,25;	0,0;	0,0
493,52557373046875;	293,25;	0,0;	0,0
493,6042175292969;	331,0;	0,0;	0,0
493,6828918457031;	446,25;	0,0;	0,0
493,7615051269531;	452,75;	0,0;	0,0
493,8401184082031;	356,5;	0,0;	0,0
493,9187316894531;	294,5;	0,0;	0,0
493,9973449707031;	306,0;	0,0;	0,0
494,075927734375;	265,5;	0,0;	0,0
494,1545104980469;	270,75;	0,0;	0,0
494,2330627441406;	278,25;	0,0;	0,0
494,3116149902344;	301,75;	0,0;	0,0
494,3901672363281;	300,5;	0,0;	0,0
494,4686584472656;	300,75;	0,0;	0,0
494,5472106933594;	332,75;	0,0;	0,0
494,6257019042969;	318,5;	0,0;	0,0
494,7041931152344;	304,25;	0,0;	0,0
494,78265380859375;	316,75;	0,0;	0,0
494,86114501953125;	328,75;	0,0;	0,0
494,9395751953125;	297,75;	0,0;	0,0
495,0180358886719;	322,75;	0,0;	0,0
495,096435546875;	327,5;	0,0;	0,0
495,1748962402344;	329,75;	0,0;	0,0
495,2532653808594;	347,25;	0,0;	0,0
495,3316650390625;	389,25;	0,0;	0,0
495,4100341796875;	578,75;	0,0;	0,0
495,4884338378906;	1391,25;	0,0;	0,0
495,5667724609375;	3921,25;	0,0;	0,0
495,6451110839844;	4061,0;	0,0;	0,0
495,72344970703125;	983,0;	0,0;	0,0
495,8017883300781;	452,75;	0,0;	0,0
495,8800964355469;	378,5;	0,0;	0,0
495,9583435058594;	347,5;	0,0;	0,0
496,0366516113281;	331,5;	0,0;	0,0
496,11492919921875;	315,5;	0,0;	0,0
496,19317626953125;	295,25;	0,0;	0,0
496,27142333984375;	328,75;	0,0;	0,0
496,34967041015625;	354,75;	0,0;	0,0
496,4278869628906;	497,25;	0,0;	0,0
496,506103515625;	529,75;	0,0;	0,0
496,58428955078125;	374,5;	0,0;	0,0
496,6625061035156;	388,25;	0,0;	0,0
496,74066162109375;	359,75;	0,0;	0,0
496,8188171386719;	371,5;	0,0;	0,0
496,89697265625;	368,75;	0,0;	0,0
496,9751281738281;	327,25;	0,0;	0,0
497,0532531738281;	357,0;	0,0;	0,0
497,1313171386719;	393,75;	0,0;	0,0
497,2094421386719;	367,75;	0,0;	0,0
497,28753662109375;	332,75;	0,0;	0,0
497,3656005859375;	344,0;	0,0;	0,0
497,44366455078125;	324,5;	0,0;	0,0
497,521728515625;	339,25;	0,0;	0,0
497,59979248046875;	374,25;	0,0;	0,0
497,67779541015625;	392,25;	0,0;	0,0
497,7558288574219;	427,5;	0,0;	0,0
497,83380126953125;	384,75;	0,0;	0,0
497,91180419921875;	420,0;	0,0;	0,0
497,9897766113281;	518,5;	0,0;	0,0
498,0677490234375;	754,5;	0,0;	0,0
498,1457214355469;	879,75;	0,0;	0,0
498,2236633300781;	767,75;	0,0;	0,0
498,30157470703125;	644,5;	0,0;	0,0
498,3794860839844;	694,75;	0,0;	0,0
498,4573974609375;	516,75;	0,0;	0,0
498,5353088378906;	362,75;	0,0;	0,0
498,6131896972656;	349,25;	0,0;	0,0
498,6910705566406;	390,25;	0,0;	0,0
498,7688903808594;	376,25;	0,0;	0,0
498,84674072265625;	368,75;	0,0;	0,0
498,924560546875;	445,25;	0,0;	0,0
499,0024108886719;	435,0;	0,0;	0,0
499,0802307128906;	348,0;	0,0;	0,0
499,1579895019531;	374,5;	0,0;	0,0
499,23577880859375;	439,25;	0,0;	0,0
499,3135681152344;	399,5;	0,0;	0,0
499,3913269042969;	329,0;	0,0;	0,0
499,4690856933594;	299,0;	0,0;	0,0
499,5467834472656;	320,25;	0,0;	0,0
499,6245422363281;	329,5;	0,0;	0,0
499,7022399902344;	360,75;	0,0;	0,0
499,7799377441406;	368,5;	0,0;	0,0
499,8576354980469;	362,0;	0,0;	0,0
499,935302734375;	476,5;	0,0;	0,0
500,0129699707031;	767,75;	0,0;	0,0
500,090576171875;	723,75;	0,0;	0,0
500,1682434082031;	444,75;	0,0;	0,0
500,2458801269531;	422,5;	0,0;	0,0
500,323486328125;	552,25;	0,0;	0,0
500,40106201171875;	1061,25;	0,0;	0,0
500,47869873046875;	1293,25;	0,0;	0,0
500,5562744140625;	632,25;	0,0;	0,0
500,6337890625;	445,75;	0,0;	0,0
500,71136474609375;	357,5;	0,0;	0,0
500,7889099121094;	347,0;	0,0;	0,0
500,8664245605469;	363,0;	0,0;	0,0
500,9439392089844;	412,5;	0,0;	0,0
501,02142333984375;	630,25;	0,0;	0,0
501,09893798828125;	576,25;	0,0;	0,0
501,1764221191406;	384,5;	0,0;	0,0
501,25384521484375;	495,0;	0,0;	0,0
501,33135986328125;	615,25;	0,0;	0,0
501,40875244140625;	502,0;	0,0;	0,0
501,4862060546875;	379,0;	0,0;	0,0
501,5636291503906;	422,25;	0,0;	0,0
501,6410217285156;	601,5;	0,0;	0,0
501,7184143066406;	596,5;	0,0;	0,0
501,7957763671875;	383,0;	0,0;	0,0
501,8731384277344;	389,5;	0,0;	0,0
501,95050048828125;	361,5;	0,0;	0,0
502,0278625488281;	435,25;	0,0;	0,0
502,10516357421875;	472,25;	0,0;	0,0
502,1824951171875;	356,0;	0,0;	0,0
502,2597961425781;	351,75;	0,0;	0,0
502,33709716796875;	319,25;	0,0;	0,0
502,41436767578125;	374,0;	0,0;	0,0
502,4916687011719;	424,5;	0,0;	0,0
502,56890869140625;	486,0;	0,0;	0,0
502,6461486816406;	457,75;	0,0;	0,0
502,7233581542969;	410,5;	0,0;	0,0
502,8006286621094;	359,5;	0,0;	0,0
502,8778076171875;	311,75;	0,0;	0,0
502,9549865722656;	337,5;	0,0;	0,0
503,03216552734375;	314,75;	0,0;	0,0
503,1093444824219;	306,25;	0,0;	0,0
503,1865234375;	327,75;	0,0;	0,0
503,2636413574219;	301,75;	0,0;	0,0
503,34075927734375;	331,25;	0,0;	0,0
503,41790771484375;	361,25;	0,0;	0,0
503,4949951171875;	340,5;	0,0;	0,0
503,57208251953125;	346,75;	0,0;	0,0
503,6492004394531;	363,75;	0,0;	0,0
503,72625732421875;	343,5;	0,0;	0,0
503,8033142089844;	408,0;	0,0;	0,0
503,88037109375;	499,25;	0,0;	0,0
503,9573974609375;	709,25;	0,0;	0,0
504,034423828125;	699,75;	0,0;	0,0
504,1114196777344;	428,75;	0,0;	0,0
504,18841552734375;	332,5;	0,0;	0,0
504,2654113769531;	316,5;	0,0;	0,0
504,3423767089844;	337,0;	0,0;	0,0
504,4193115234375;	310,75;	0,0;	0,0
504,49627685546875;	326,25;	0,0;	0,0
504,5732421875;	338,75;	0,0;	0,0
504,650146484375;	368,75;	0,0;	0,0
504,7270202636719;	465,5;	0,0;	0,0
504,8039245605469;	655,25;	0,0;	0,0
504,880859375;	607,5;	0,0;	0,0
504,95770263671875;	437,75;	0,0;	0,0
505,0345458984375;	519,75;	0,0;	0,0
505,1114196777344;	366,25;	0,0;	0,0
505,1882629394531;	340,5;	0,0;	0,0
505,2650451660156;	334,25;	0,0;	0,0
505,34185791015625;	305,25;	0,0;	0,0
505,4186706542969;	315,75;	0,0;	0,0
505,4954528808594;	283,0;	0,0;	0,0
505,57220458984375;	346,25;	0,0;	0,0
505,6489562988281;	319,0;	0,0;	0,0
505,72576904296875;	312,0;	0,0;	0,0
505,802490234375;	293,25;	0,0;	0,0
505,87921142578125;	308,0;	0,0;	0,0
505,9559020996094;	300,5;	0,0;	0,0
506,0326232910156;	309,0;	0,0;	0,0
506,1092834472656;	321,5;	0,0;	0,0
506,1859436035156;	342,0;	0,0;	0,0
506,2626037597656;	429,0;	0,0;	0,0
506,3392639160156;	543,75;	0,0;	0,0
506,4159240722656;	421,0;	0,0;	0,0
506,4925231933594;	346,25;	0,0;	0,0
506,56915283203125;	372,5;	0,0;	0,0
506,645751953125;	423,5;	0,0;	0,0
506,72235107421875;	519,25;	0,0;	0,0
506,7989196777344;	401,0;	0,0;	0,0
506,8754577636719;	357,5;	0,0;	0,0
506,9520263671875;	336,25;	0,0;	0,0
507,028564453125;	370,75;	0,0;	0,0
507,1050720214844;	402,5;	0,0;	0,0
507,1816101074219;	418,5;	0,0;	0,0
507,2580871582031;	503,75;	0,0;	0,0
507,3345642089844;	541,0;	0,0;	0,0
507,4110412597656;	427,75;	0,0;	0,0
507,487548828125;	359,75;	0,0;	0,0
507,56396484375;	345,75;	0,0;	0,0
507,640380859375;	375,25;	0,0;	0,0
507,71685791015625;	513,5;	0,0;	0,0
507,7932434082031;	541,25;	0,0;	0,0
507,86962890625;	386,25;	0,0;	0,0
507,9460144042969;	323,75;	0,0;	0,0
508,02239990234375;	329,5;	0,0;	0,0
508,0987548828125;	379,75;	0,0;	0,0
508,17510986328125;	439,5;	0,0;	0,0
508,2514343261719;	380,5;	0,0;	0,0
508,3277893066406;	335,25;	0,0;	0,0
508,4040832519531;	322,75;	0,0;	0,0
508,4803771972656;	278,25;	0,0;	0,0
508,556640625;	294,75;	0,0;	0,0
508,6329650878906;	315,75;	0,0;	0,0
508,7091979980469;	345,0;	0,0;	0,0
508,78546142578125;	300,75;	0,0;	0,0
508,8616943359375;	374,0;	0,0;	0,0
508,93792724609375;	390,75;	0,0;	0,0
509,0141296386719;	345,25;	0,0;	0,0
509,09033203125;	323,5;	0,0;	0,0
509,1665344238281;	347,75;	0,0;	0,0
509,24267578125;	333,0;	0,0;	0,0
509,31884765625;	310,25;	0,0;	0,0
509,3949890136719;	335,5;	0,0;	0,0
509,4711608886719;	375,25;	0,0;	0,0
509,5472717285156;	449,75;	0,0;	0,0
509,62335205078125;	430,5;	0,0;	0,0
509,699462890625;	478,0;	0,0;	0,0
509,77557373046875;	478,25;	0,0;	0,0
509,85162353515625;	329,5;	0,0;	0,0
509,92767333984375;	308,75;	0,0;	0,0
510,00372314453125;	312,25;	0,0;	0,0
510,0798034667969;	328,5;	0,0;	0,0
510,15582275390625;	290,0;	0,0;	0,0
510,2318115234375;	324,25;	0,0;	0,0
510,3078308105469;	349,75;	0,0;	0,0
510,3837890625;	425,5;	0,0;	0,0
510,45977783203125;	422,75;	0,0;	0,0
510,5357360839844;	436,0;	0,0;	0,0
510,6116943359375;	532,0;	0,0;	0,0
510,6876220703125;	422,25;	0,0;	0,0
510,7635498046875;	378,25;	0,0;	0,0
510,8394470214844;	461,75;	0,0;	0,0
510,9153747558594;	481,5;	0,0;	0,0
510,9912414550781;	345,0;	0,0;	0,0
511,0671081542969;	333,5;	0,0;	0,0
511,1429443359375;	289,5;	0,0;	0,0
511,2188415527344;	307,25;	0,0;	0,0
511,2946472167969;	276,75;	0,0;	0,0
511,3704833984375;	303,5;	0,0;	0,0
511,4462890625;	297,25;	0,0;	0,0
511,5220947265625;	294,75;	0,0;	0,0
511,59783935546875;	303,0;	0,0;	0,0
511,6736145019531;	312,75;	0,0;	0,0
511,7494201660156;	309,75;	0,0;	0,0
511,82513427734375;	302,0;	0,0;	0,0
511,90087890625;	343,75;	0,0;	0,0
511,97662353515625;	357,5;	0,0;	0,0
512,0523071289062;	369,25;	0,0;	0,0
512,1280517578125;	347,25;	0,0;	0,0
512,2036743164062;	442,0;	0,0;	0,0
512,2793579101562;	436,25;	0,0;	0,0
512,3550415039062;	492,25;	0,0;	0,0
512,4306640625;	470,5;	0,0;	0,0
512,5062866210938;	432,0;	0,0;	0,0
512,5819702148438;	408,0;	0,0;	0,0
512,657470703125;	372,5;	0,0;	0,0
512,7330932617188;	332,5;	0,0;	0,0
512,8087158203125;	307,75;	0,0;	0,0
512,88427734375;	360,5;	0,0;	0,0
512,9598999023438;	383,5;	0,0;	0,0
513,035400390625;	458,75;	0,0;	0,0
513,1109008789062;	538,75;	0,0;	0,0
513,1864624023438;	692,75;	0,0;	0,0
513,2619018554688;	613,25;	0,0;	0,0
513,33740234375;	419,25;	0,0;	0,0
513,4129638671875;	404,75;	0,0;	0,0
513,4884033203125;	396,75;	0,0;	0,0
513,5638427734375;	509,75;	0,0;	0,0
513,6392822265625;	559,5;	0,0;	0,0
513,7147216796875;	855,5;	0,0;	0,0
513,7901000976562;	1438,25;	0,0;	0,0
513,8655395507812;	875,25;	0,0;	0,0
513,94091796875;	422,75;	0,0;	0,0
514,0162963867188;	439,75;	0,0;	0,0
514,0916748046875;	494,25;	0,0;	0,0
514,1669921875;	454,5;	0,0;	0,0
514,2423706054688;	343,5;	0,0;	0,0
514,3176879882812;	320,75;	0,0;	0,0
514,3930053710938;	370,25;	0,0;	0,0
514,4683837890625;	348,0;	0,0;	0,0
514,5435791015625;	343,75;	0,0;	0,0
514,618896484375;	417,75;	0,0;	0,0
514,694091796875;	476,75;	0,0;	0,0
514,7694091796875;	369,5;	0,0;	0,0
514,8446655273438;	360,5;	0,0;	0,0
514,9198608398438;	415,25;	0,0;	0,0
514,9950561523438;	435,25;	0,0;	0,0
515,0703125;	402,75;	0,0;	0,0
515,1454467773438;	408,25;	0,0;	0,0
515,220703125;	381,25;	0,0;	0,0
515,2957763671875;	334,5;	0,0;	0,0
515,3709716796875;	318,5;	0,0;	0,0
515,4461059570312;	337,25;	0,0;	0,0
515,521240234375;	354,0;	0,0;	0,0
515,5963745117188;	338,5;	0,0;	0,0
515,6714477539062;	348,25;	0,0;	0,0
515,7465209960938;	389,75;	0,0;	0,0
515,8215942382812;	356,5;	0,0;	0,0
515,896728515625;	380,5;	0,0;	0,0
515,9717407226562;	424,25;	0,0;	0,0
516,0467529296875;	537,0;	0,0;	0,0
516,121826171875;	550,25;	0,0;	0,0
516,1968383789062;	492,75;	0,0;	0,0
516,2717895507812;	437,25;	0,0;	0,0
516,3468017578125;	491,0;	0,0;	0,0
516,4217529296875;	641,5;	0,0;	0,0
516,4967651367188;	1038,5;	0,0;	0,0
516,5716552734375;	2224,25;	0,0;	0,0
516,6466674804688;	1974,0;	0,0;	0,0
516,7215576171875;	904,5;	0,0;	0,0
516,7964477539062;	727,75;	0,0;	0,0
516,871337890625;	460,75;	0,0;	0,0
516,9461669921875;	659,5;	0,0;	0,0
517,0211181640625;	1020,0;	0,0;	0,0
517,0960083007812;	673,75;	0,0;	0,0
517,1707763671875;	439,25;	0,0;	0,0
517,24560546875;	364,75;	0,0;	0,0
517,3204345703125;	334,75;	0,0;	0,0
517,3952026367188;	336,0;	0,0;	0,0
517,4700927734375;	331,75;	0,0;	0,0
517,5448608398438;	318,0;	0,0;	0,0
517,61962890625;	320,25;	0,0;	0,0
517,6943969726562;	348,25;	0,0;	0,0
517,7691040039062;	323,0;	0,0;	0,0
517,8438110351562;	342,25;	0,0;	0,0
517,9185791015625;	318,5;	0,0;	0,0
517,9932250976562;	336,5;	0,0;	0,0
518,0679321289062;	363,5;	0,0;	0,0
518,1426391601562;	507,0;	0,0;	0,0
518,21728515625;	658,5;	0,0;	0,0
518,2919311523438;	483,25;	0,0;	0,0
518,3665771484375;	343,75;	0,0;	0,0
518,4412231445312;	323,25;	0,0;	0,0
518,515869140625;	359,0;	0,0;	0,0
518,5903930664062;	351,75;	0,0;	0,0
518,6650390625;	424,0;	0,0;	0,0
518,7396240234375;	499,75;	0,0;	0,0
518,8141479492188;	454,0;	0,0;	0,0
518,8887329101562;	517,0;	0,0;	0,0
518,9631958007812;	865,75;	0,0;	0,0
519,0377807617188;	1238,5;	0,0;	0,0
519,1123046875;	1088,75;	0,0;	0,0
519,186767578125;	604,0;	0,0;	0,0
519,2612915039062;	476,5;	0,0;	0,0
519,3358154296875;	714,25;	0,0;	0,0
519,41015625;	622,75;	0,0;	0,0
519,4846801757812;	427,75;	0,0;	0,0
519,5591430664062;	404,0;	0,0;	0,0
519,633544921875;	374,25;	0,0;	0,0
519,7080078125;	399,0;	0,0;	0,0
519,7822875976562;	371,25;	0,0;	0,0
519,856689453125;	348,75;	0,0;	0,0
519,93115234375;	323,0;	0,0;	0,0
520,0054321289062;	400,0;	0,0;	0,0
520,0797729492188;	488,0;	0,0;	0,0
520,1541748046875;	436,5;	0,0;	0,0
520,2283935546875;	335,75;	0,0;	0,0
520,302734375;	377,5;	0,0;	0,0
520,3770751953125;	399,0;	0,0;	0,0
520,4512939453125;	431,0;	0,0;	0,0
520,525634765625;	393,75;	0,0;	0,0
520,5997924804688;	373,75;	0,0;	0,0
520,674072265625;	488,25;	0,0;	0,0
520,7483520507812;	523,0;	0,0;	0,0
520,822509765625;	386,0;	0,0;	0,0
520,8967895507812;	314,75;	0,0;	0,0
520,970947265625;	323,25;	0,0;	0,0
521,0451049804688;	312,0;	0,0;	0,0
521,1192626953125;	322,5;	0,0;	0,0
521,1934204101562;	368,5;	0,0;	0,0
521,267578125;	383,25;	0,0;	0,0
521,3417358398438;	490,0;	0,0;	0,0
521,415771484375;	584,5;	0,0;	0,0
521,4898681640625;	582,25;	0,0;	0,0
521,5640258789062;	549,75;	0,0;	0,0
521,6380615234375;	505,5;	0,0;	0,0
521,712158203125;	414,0;	0,0;	0,0
521,7862548828125;	346,25;	0,0;	0,0
521,8602294921875;	355,0;	0,0;	0,0
521,9342651367188;	330,25;	0,0;	0,0
522,0082397460938;	338,25;	0,0;	0,0
522,0822143554688;	355,0;	0,0;	0,0
522,1563110351562;	324,5;	0,0;	0,0
522,230224609375;	367,0;	0,0;	0,0
522,30419921875;	366,5;	0,0;	0,0
522,3781127929688;	487,0;	0,0;	0,0
522,4520874023438;	831,0;	0,0;	0,0
522,5260009765625;	1944,25;	0,0;	0,0
522,599853515625;	2057,5;	0,0;	0,0
522,6737670898438;	722,75;	0,0;	0,0
522,7476806640625;	444,5;	0,0;	0,0
522,821533203125;	499,0;	0,0;	0,0
522,8953857421875;	503,5;	0,0;	0,0
522,96923828125;	465,25;	0,0;	0,0
523,0430297851562;	800,75;	0,0;	0,0
523,1168823242188;	1798,75;	0,0;	0,0
523,190673828125;	1692,0;	0,0;	0,0
523,2644653320312;	681,75;	0,0;	0,0
523,3382568359375;	399,5;	0,0;	0,0
523,4119873046875;	383,25;	0,0;	0,0
523,4857788085938;	337,25;	0,0;	0,0
523,5595703125;	329,5;	0,0;	0,0
523,6332397460938;	304,75;	0,0;	0,0
523,7069702148438;	339,75;	0,0;	0,0
523,7807006835938;	330,0;	0,0;	0,0
523,8543701171875;	327,5;	0,0;	0,0
523,927978515625;	334,25;	0,0;	0,0
524,0016479492188;	354,25;	0,0;	0,0
524,0753173828125;	412,75;	0,0;	0,0
524,14892578125;	398,0;	0,0;	0,0
524,2225341796875;	342,25;	0,0;	0,0
524,2962036132812;	325,0;	0,0;	0,0
524,3698120117188;	327,0;	0,0;	0,0
524,443359375;	317,25;	0,0;	0,0
524,5169067382812;	316,5;	0,0;	0,0
524,5905151367188;	321,0;	0,0;	0,0
524,6640014648438;	335,0;	0,0;	0,0
524,7376098632812;	351,5;	0,0;	0,0
524,8110961914062;	381,5;	0,0;	0,0
524,8845825195312;	396,75;	0,0;	0,0
524,9580688476562;	398,5;	0,0;	0,0
525,0315551757812;	329,5;	0,0;	0,0
525,10498046875;	331,25;	0,0;	0,0
525,178466796875;	353,75;	0,0;	0,0
525,2518920898438;	352,25;	0,0;	0,0
525,3253173828125;	353,25;	0,0;	0,0
525,3987426757812;	342,25;	0,0;	0,0
525,47216796875;	316,5;	0,0;	0,0
525,5455322265625;	336,25;	0,0;	0,0
525,618896484375;	329,5;	0,0;	0,0
525,6922607421875;	299,5;	0,0;	0,0
525,765625;	312,5;	0,0;	0,0
525,8389892578125;	351,75;	0,0;	0,0
525,9122924804688;	404,0;	0,0;	0,0
525,9856567382812;	569,75;	0,0;	0,0
526,0588989257812;	687,75;	0,0;	0,0
526,1322021484375;	618,25;	0,0;	0,0
526,2054443359375;	618,75;	0,0;	0,0
526,2786865234375;	648,5;	0,0;	0,0
526,3519897460938;	809,75;	0,0;	0,0
526,4251098632812;	1081,25;	0,0;	0,0
526,4984130859375;	1243,0;	0,0;	0,0
526,5715942382812;	1002,75;	0,0;	0,0
526,644775390625;	774,75;	0,0;	0,0
526,718017578125;	1724,25;	0,0;	0,0
526,7911376953125;	4424,5;	0,0;	0,0
526,8642578125;	4159,0;	0,0;	0,0
526,9374389648438;	1784,75;	0,0;	0,0
527,0105590820312;	505,25;	0,0;	0,0
527,0836791992188;	412,0;	0,0;	0,0
527,15673828125;	510,75;	0,0;	0,0
527,2298583984375;	472,0;	0,0;	0,0
527,3029174804688;	374,75;	0,0;	0,0
527,3760375976562;	371,0;	0,0;	0,0
527,4490356445312;	369,5;	0,0;	0,0
527,5220336914062;	348,25;	0,0;	0,0
527,5950927734375;	297,5;	0,0;	0,0
527,6680908203125;	343,75;	0,0;	0,0
527,7411499023438;	330,5;	0,0;	0,0
527,8140869140625;	342,75;	0,0;	0,0
527,8870849609375;	390,5;	0,0;	0,0
527,9600219726562;	444,25;	0,0;	0,0
528,032958984375;	607,25;	0,0;	0,0
528,1058959960938;	591,25;	0,0;	0,0
528,1788330078125;	730,75;	0,0;	0,0
528,251708984375;	747,25;	0,0;	0,0
528,3245849609375;	465,5;	0,0;	0,0
528,3974609375;	325,5;	0,0;	0,0
528,4703369140625;	333,0;	0,0;	0,0
528,543212890625;	334,25;	0,0;	0,0
528,6160278320312;	325,0;	0,0;	0,0
528,6888427734375;	336,75;	0,0;	0,0
528,7616577148438;	350,75;	0,0;	0,0
528,8344116210938;	321,5;	0,0;	0,0
528,9072265625;	345,0;	0,0;	0,0
528,97998046875;	337,0;	0,0;	0,0
529,0527954101562;	332,25;	0,0;	0,0
529,12548828125;	312,25;	0,0;	0,0
529,1982421875;	323,25;	0,0;	0,0
529,27099609375;	358,5;	0,0;	0,0
529,34375;	312,0;	0,0;	0,0
529,4163208007812;	312,5;	0,0;	0,0
529,4890747070312;	313,5;	0,0;	0,0
529,561767578125;	339,0;	0,0;	0,0
529,6343383789062;	319,25;	0,0;	0,0
529,70703125;	333,0;	0,0;	0,0
529,7796020507812;	332,25;	0,0;	0,0
529,8522338867188;	297,75;	0,0;	0,0
529,9249267578125;	349,0;	0,0;	0,0
529,9974365234375;	396,5;	0,0;	0,0
530,070068359375;	530,5;	0,0;	0,0
530,142578125;	500,0;	0,0;	0,0
530,2151489257812;	348,25;	0,0;	0,0
530,2876586914062;	342,0;	0,0;	0,0
530,3602294921875;	330,25;	0,0;	0,0
530,4326782226562;	348,25;	0,0;	0,0
530,5052490234375;	340,0;	0,0;	0,0
530,57763671875;	360,0;	0,0;	0,0
530,650146484375;	340,0;	0,0;	0,0
530,72265625;	320,5;	0,0;	0,0
530,7950439453125;	327,5;	0,0;	0,0
530,8674926757812;	328,0;	0,0;	0,0
530,93994140625;	314,5;	0,0;	0,0
531,0122680664062;	327,0;	0,0;	0,0
531,084716796875;	349,75;	0,0;	0,0
531,1571044921875;	331,75;	0,0;	0,0
531,2294311523438;	326,0;	0,0;	0,0
531,3018188476562;	334,25;	0,0;	0,0
531,3740844726562;	333,5;	0,0;	0,0
531,4464111328125;	394,25;	0,0;	0,0
531,518798828125;	406,75;	0,0;	0,0
531,591064453125;	383,0;	0,0;	0,0
531,6633911132812;	319,5;	0,0;	0,0
531,7356567382812;	330,75;	0,0;	0,0
531,807861328125;	349,0;	0,0;	0,0
531,880126953125;	342,25;	0,0;	0,0
531,9523315429688;	372,5;	0,0;	0,0
532,0245361328125;	420,75;	0,0;	0,0
532,0968017578125;	458,75;	0,0;	0,0
532,1689453125;	600,5;	0,0;	0,0
532,2411499023438;	1208,5;	0,0;	0,0
532,3133544921875;	1291,25;	0,0;	0,0
532,3854370117188;	624,25;	0,0;	0,0
532,4576416015625;	520,75;	0,0;	0,0
532,5297241210938;	843,75;	0,0;	0,0
532,6018676757812;	2220,25;	0,0;	0,0
532,6739501953125;	3400,0;	0,0;	0,0
532,7459716796875;	1718,5;	0,0;	0,0
532,818115234375;	508,75;	0,0;	0,0
532,8901977539062;	390,25;	0,0;	0,0
532,9622192382812;	362,5;	0,0;	0,0
533,0342407226562;	337,5;	0,0;	0,0
533,1062622070312;	384,25;	0,0;	0,0
533,1782836914062;	420,25;	0,0;	0,0
533,2503051757812;	331,0;	0,0;	0,0
533,3222045898438;	315,75;	0,0;	0,0
533,3942260742188;	351,75;	0,0;	0,0
533,4661865234375;	316,0;	0,0;	0,0
533,5380859375;	358,5;	0,0;	0,0
533,6100463867188;	361,0;	0,0;	0,0
533,6819458007812;	356,25;	0,0;	0,0
533,7538452148438;	433,75;	0,0;	0,0
533,82568359375;	693,5;	0,0;	0,0
533,8976440429688;	852,25;	0,0;	0,0
533,9694213867188;	773,0;	0,0;	0,0
534,0413208007812;	451,5;	0,0;	0,0
534,1130981445312;	359,25;	0,0;	0,0
534,1849975585938;	358,75;	0,0;	0,0
534,2567749023438;	385,0;	0,0;	0,0
534,3284912109375;	356,5;	0,0;	0,0
534,4003295898438;	355,25;	0,0;	0,0
534,4721069335938;	352,5;	0,0;	0,0
534,5438842773438;	343,75;	0,0;	0,0
534,6156005859375;	361,5;	0,0;	0,0
534,6873779296875;	414,75;	0,0;	0,0
534,759033203125;	499,0;	0,0;	0,0
534,830810546875;	522,25;	0,0;	0,0
534,9024047851562;	391,25;	0,0;	0,0
534,97412109375;	357,25;	0,0;	0,0
535,0457763671875;	332,75;	0,0;	0,0
535,1173706054688;	349,5;	0,0;	0,0
535,1890869140625;	408,0;	0,0;	0,0
535,2607421875;	397,5;	0,0;	0,0
535,332275390625;	337,5;	0,0;	0,0
535,4038696289062;	350,25;	0,0;	0,0
535,4754638671875;	352,75;	0,0;	0,0
535,5469970703125;	332,0;	0,0;	0,0
535,6185913085938;	382,75;	0,0;	0,0
535,6901245117188;	330,75;	0,0;	0,0
535,7616577148438;	370,0;	0,0;	0,0
535,8331909179688;	362,25;	0,0;	0,0
535,9046630859375;	367,0;	0,0;	0,0
535,9761962890625;	361,25;	0,0;	0,0
536,047607421875;	390,25;	0,0;	0,0
536,1190185546875;	420,5;	0,0;	0,0
536,1905517578125;	471,0;	0,0;	0,0
536,2619018554688;	548,5;	0,0;	0,0
536,3333740234375;	651,0;	0,0;	0,0
536,4048461914062;	665,0;	0,0;	0,0
536,4761352539062;	630,25;	0,0;	0,0
536,5475463867188;	712,5;	0,0;	0,0
536,6189575195312;	772,25;	0,0;	0,0
536,6902465820312;	625,0;	0,0;	0,0
536,7615966796875;	646,5;	0,0;	0,0
536,8329467773438;	1024,5;	0,0;	0,0
536,9042358398438;	1307,75;	0,0;	0,0
536,9755859375;	2221,5;	0,0;	0,0
537,046875;	1952,5;	0,0;	0,0
537,1181030273438;	684,25;	0,0;	0,0
537,1893920898438;	407,25;	0,0;	0,0
537,2606201171875;	365,75;	0,0;	0,0
537,3319091796875;	348,75;	0,0;	0,0
537,403076171875;	367,25;	0,0;	0,0
537,4743041992188;	344,0;	0,0;	0,0
537,5454711914062;	364,5;	0,0;	0,0
537,6165771484375;	386,75;	0,0;	0,0
537,6878051757812;	388,25;	0,0;	0,0
537,7589721679688;	388,5;	0,0;	0,0
537,830078125;	428,0;	0,0;	0,0
537,9012451171875;	406,25;	0,0;	0,0
537,9723510742188;	423,75;	0,0;	0,0
538,0433959960938;	557,0;	0,0;	0,0
538,1145629882812;	851,25;	0,0;	0,0
538,1856079101562;	1105,5;	0,0;	0,0
538,2566528320312;	803,5;	0,0;	0,0
538,3276977539062;	466,75;	0,0;	0,0
538,398681640625;	387,0;	0,0;	0,0
538,4697265625;	382,0;	0,0;	0,0
538,5408325195312;	373,75;	0,0;	0,0
538,6117553710938;	403,75;	0,0;	0,0
538,6827392578125;	368,25;	0,0;	0,0
538,753662109375;	395,0;	0,0;	0,0
538,8246459960938;	424,5;	0,0;	0,0
538,8956298828125;	393,25;	0,0;	0,0
538,9664916992188;	408,75;	0,0;	0,0
539,0374145507812;	443,0;	0,0;	0,0
539,1083374023438;	493,5;	0,0;	0,0
539,1791381835938;	635,25;	0,0;	0,0
539,2500610351562;	525,5;	0,0;	0,0
539,3209228515625;	416,75;	0,0;	0,0
539,3917236328125;	472,0;	0,0;	0,0
539,4625854492188;	688,75;	0,0;	0,0
539,5333862304688;	1324,5;	0,0;	0,0
539,6041870117188;	1361,75;	0,0;	0,0
539,6749877929688;	625,75;	0,0;	0,0
539,7457275390625;	420,5;	0,0;	0,0
539,8165283203125;	482,25;	0,0;	0,0
539,8872680664062;	555,25;	0,0;	0,0
539,9580078125;	484,25;	0,0;	0,0
540,0286865234375;	482,25;	0,0;	0,0
540,0994873046875;	538,75;	0,0;	0,0
540,170166015625;	778,0;	0,0;	0,0
540,2408447265625;	1140,5;	0,0;	0,0
540,3114624023438;	1188,0;	0,0;	0,0
540,3821411132812;	1485,5;	0,0;	0,0
540,4528198242188;	1669,75;	0,0;	0,0
540,5233764648438;	888,0;	0,0;	0,0
540,5940551757812;	409,25;	0,0;	0,0
540,6646728515625;	405,0;	0,0;	0,0
540,7351684570312;	434,25;	0,0;	0,0
540,8057861328125;	529,25;	0,0;	0,0
540,8763427734375;	679,5;	0,0;	0,0
540,9468383789062;	753,5;	0,0;	0,0
541,0174560546875;	594,5;	0,0;	0,0
541,087890625;	479,5;	0,0;	0,0
541,158447265625;	481,0;	0,0;	0,0
541,2289428710938;	560,75;	0,0;	0,0
541,2994384765625;	802,75;	0,0;	0,0
541,369873046875;	1011,25;	0,0;	0,0
541,4403686523438;	723,25;	0,0;	0,0
541,5107421875;	473,0;	0,0;	0,0
541,5811767578125;	433,75;	0,0;	0,0
541,6515502929688;	408,25;	0,0;	0,0
541,7219848632812;	389,5;	0,0;	0,0
541,7923583984375;	397,0;	0,0;	0,0
541,8627319335938;	411,0;	0,0;	0,0
541,93310546875;	413,25;	0,0;	0,0
542,0034790039062;	447,5;	0,0;	0,0
542,07373046875;	501,75;	0,0;	0,0
542,1441040039062;	739,0;	0,0;	0,0
542,21435546875;	1028,0;	0,0;	0,0
542,28466796875;	1067,5;	0,0;	0,0
542,3549194335938;	589,75;	0,0;	0,0
542,4251708984375;	438,25;	0,0;	0,0
542,4954833984375;	400,0;	0,0;	0,0
542,5657348632812;	446,0;	0,0;	0,0
542,6358642578125;	430,75;	0,0;	0,0
542,7061157226562;	643,25;	0,0;	0,0
542,7763671875;	1426,5;	0,0;	0,0
542,846435546875;	1674,5;	0,0;	0,0
542,9166870117188;	842,5;	0,0;	0,0
542,98681640625;	409,25;	0,0;	0,0
543,0569458007812;	423,0;	0,0;	0,0
543,1271362304688;	413,25;	0,0;	0,0
543,1971435546875;	602,75;	0,0;	0,0
543,267333984375;	1005,25;	0,0;	0,0
543,33740234375;	1076,0;	0,0;	0,0
543,407470703125;	592,5;	0,0;	0,0
543,4774780273438;	383,0;	0,0;	0,0
543,547607421875;	360,25;	0,0;	0,0
543,6175537109375;	361,0;	0,0;	0,0
543,6876220703125;	347,5;	0,0;	0,0
543,7576293945312;	351,25;	0,0;	0,0
543,8275756835938;	376,5;	0,0;	0,0
543,8975830078125;	363,0;	0,0;	0,0
543,9674682617188;	349,5;	0,0;	0,0
544,0374755859375;	369,25;	0,0;	0,0
544,107421875;	389,0;	0,0;	0,0
544,1773071289062;	380,25;	0,0;	0,0
544,2472534179688;	480,5;	0,0;	0,0
544,317138671875;	546,25;	0,0;	0,0
544,386962890625;	668,5;	0,0;	0,0
544,4568481445312;	827,0;	0,0;	0,0
544,5266723632812;	1650,0;	0,0;	0,0
544,5965576171875;	1344,25;	0,0;	0,0
544,6663818359375;	577,0;	0,0;	0,0
544,7361450195312;	412,25;	0,0;	0,0
544,8060302734375;	350,5;	0,0;	0,0
544,8757934570312;	375,5;	0,0;	0,0
544,945556640625;	371,5;	0,0;	0,0
545,0153198242188;	369,5;	0,0;	0,0
545,0850830078125;	397,5;	0,0;	0,0
545,15478515625;	423,25;	0,0;	0,0
545,2244873046875;	489,25;	0,0;	0,0
545,294189453125;	651,75;	0,0;	0,0
545,3639526367188;	1158,25;	0,0;	0,0
545,43359375;	1434,25;	0,0;	0,0
545,5032348632812;	816,0;	0,0;	0,0
545,5729370117188;	407,0;	0,0;	0,0
545,6424560546875;	372,75;	0,0;	0,0
545,712158203125;	382,0;	0,0;	0,0
545,78173828125;	371,0;	0,0;	0,0
545,851318359375;	385,5;	0,0;	0,0
545,9208984375;	410,0;	0,0;	0,0
545,9905395507812;	423,25;	0,0;	0,0
546,0599975585938;	493,5;	0,0;	0,0
546,1295776367188;	597,0;	0,0;	0,0
546,1990966796875;	590,75;	0,0;	0,0
546,2686157226562;	501,5;	0,0;	0,0
546,338134765625;	393,0;	0,0;	0,0
546,4075317382812;	407,25;	0,0;	0,0
546,4771118164062;	430,0;	0,0;	0,0
546,5465698242188;	411,75;	0,0;	0,0
546,615966796875;	372,75;	0,0;	0,0
546,6853637695312;	370,0;	0,0;	0,0
546,7548217773438;	370,0;	0,0;	0,0
546,82421875;	351,5;	0,0;	0,0
546,8936157226562;	386,75;	0,0;	0,0
546,9630126953125;	391,75;	0,0;	0,0
547,0323486328125;	383,0;	0,0;	0,0
547,1016845703125;	396,5;	0,0;	0,0
547,1710205078125;	435,25;	0,0;	0,0
547,2403564453125;	446,75;	0,0;	0,0
547,3096923828125;	485,75;	0,0;	0,0
547,37890625;	472,5;	0,0;	0,0
547,4482421875;	532,75;	0,0;	0,0
547,5175170898438;	612,5;	0,0;	0,0
547,586669921875;	507,75;	0,0;	0,0
547,6559448242188;	427,75;	0,0;	0,0
547,7252197265625;	408,25;	0,0;	0,0
547,7943725585938;	407,75;	0,0;	0,0
547,8636474609375;	416,75;	0,0;	0,0
547,9327392578125;	466,25;	0,0;	0,0
548,001953125;	470,25;	0,0;	0,0
548,0711059570312;	460,0;	0,0;	0,0
548,1401977539062;	440,25;	0,0;	0,0
548,2093505859375;	434,75;	0,0;	0,0
548,2784423828125;	433,0;	0,0;	0,0
548,3475341796875;	417,5;	0,0;	0,0
548,4166259765625;	408,0;	0,0;	0,0
548,4857177734375;	446,0;	0,0;	0,0
548,5547485351562;	447,25;	0,0;	0,0
548,6238403320312;	450,5;	0,0;	0,0
548,6928100585938;	461,25;	0,0;	0,0
548,7619018554688;	480,0;	0,0;	0,0
548,8309326171875;	461,5;	0,0;	0,0
548,8998413085938;	416,0;	0,0;	0,0
548,9688720703125;	399,75;	0,0;	0,0
549,0377807617188;	424,5;	0,0;	0,0
549,1067504882812;	434,5;	0,0;	0,0
549,1756591796875;	468,75;	0,0;	0,0
549,2445678710938;	484,0;	0,0;	0,0
549,3135375976562;	431,75;	0,0;	0,0
549,3824462890625;	446,75;	0,0;	0,0
549,4512939453125;	456,75;	0,0;	0,0
549,5201416015625;	503,25;	0,0;	0,0
549,5890502929688;	600,0;	0,0;	0,0
549,6578369140625;	561,75;	0,0;	0,0
549,7266845703125;	483,25;	0,0;	0,0
549,7954711914062;	490,75;	0,0;	0,0
549,8642578125;	468,0;	0,0;	0,0
549,93310546875;	525,0;	0,0;	0,0
550,0017700195312;	600,75;	0,0;	0,0
550,070556640625;	528,0;	0,0;	0,0
550,1393432617188;	486,25;	0,0;	0,0
550,2080078125;	485,5;	0,0;	0,0
550,2767944335938;	457,5;	0,0;	0,0
550,345458984375;	498,75;	0,0;	0,0
550,4141235351562;	542,5;	0,0;	0,0
550,4828491210938;	692,0;	0,0;	0,0
550,5513916015625;	703,75;	0,0;	0,0
550,6201171875;	608,25;	0,0;	0,0
550,688720703125;	533,75;	0,0;	0,0
550,75732421875;	534,25;	0,0;	0,0
550,8259887695312;	509,5;	0,0;	0,0
550,89453125;	544,75;	0,0;	0,0
550,9630737304688;	539,0;	0,0;	0,0
551,0316772460938;	571,25;	0,0;	0,0
551,1002197265625;	591,0;	0,0;	0,0
551,1687622070312;	573,75;	0,0;	0,0
551,2373046875;	561,75;	0,0;	0,0
551,3057250976562;	525,0;	0,0;	0,0
551,374267578125;	534,0;	0,0;	0,0
551,4427490234375;	529,5;	0,0;	0,0
551,5111694335938;	542,75;	0,0;	0,0
551,5796508789062;	564,75;	0,0;	0,0
551,6480102539062;	542,5;	0,0;	0,0
551,7164916992188;	565,5;	0,0;	0,0
551,7849731445312;	526,25;	0,0;	0,0
551,8533325195312;	527,25;	0,0;	0,0
551,9216918945312;	524,75;	0,0;	0,0
551,9901123046875;	518,25;	0,0;	0,0
552,0584106445312;	527,75;	0,0;	0,0
552,1267700195312;	545,0;	0,0;	0,0
552,195068359375;	536,0;	0,0;	0,0
552,2633666992188;	553,25;	0,0;	0,0
552,3316650390625;	569,0;	0,0;	0,0
552,39990234375;	542,75;	0,0;	0,0
552,46826171875;	566,5;	0,0;	0,0
552,5364990234375;	530,0;	0,0;	0,0
552,6046752929688;	532,0;	0,0;	0,0
552,6729736328125;	562,0;	0,0;	0,0
552,7412109375;	542,25;	0,0;	0,0
552,809326171875;	531,75;	0,0;	0,0
552,8775634765625;	535,0;	0,0;	0,0
552,9457397460938;	553,5;	0,0;	0,0
553,0138549804688;	566,0;	0,0;	0,0
553,08203125;	580,0;	0,0;	0,0
553,150146484375;	571,75;	0,0;	0,0
553,2182006835938;	578,5;	0,0;	0,0
553,286376953125;	644,25;	0,0;	0,0
553,3544311523438;	745,0;	0,0;	0,0
553,4225463867188;	747,5;	0,0;	0,0
553,4906005859375;	673,75;	0,0;	0,0
553,55859375;	607,25;	0,0;	0,0
553,626708984375;	611,0;	0,0;	0,0
553,6947021484375;	606,5;	0,0;	0,0
553,7626953125;	610,25;	0,0;	0,0
553,8306884765625;	620,75;	0,0;	0,0
553,8986206054688;	609,0;	0,0;	0,0
553,9666137695312;	625,0;	0,0;	0,0
554,0346069335938;	643,75;	0,0;	0,0
554,1024780273438;	623,0;	0,0;	0,0
554,1704711914062;	640,25;	0,0;	0,0
554,2384033203125;	705,5;	0,0;	0,0
554,3062133789062;	656,0;	0,0;	0,0
554,3740844726562;	610,75;	0,0;	0,0
554,4419555664062;	606,0;	0,0;	0,0
554,509765625;	643,0;	0,0;	0,0
554,57763671875;	632,75;	0,0;	0,0
554,6454467773438;	624,5;	0,0;	0,0
554,7133178710938;	610,25;	0,0;	0,0
554,7810668945312;	638,5;	0,0;	0,0
554,8488159179688;	610,0;	0,0;	0,0
554,9166259765625;	556,75;	0,0;	0,0
554,9843139648438;	586,25;	0,0;	0,0
555,0521240234375;	596,5;	0,0;	0,0
555,119873046875;	563,25;	0,0;	0,0
555,1875;	629,5;	0,0;	0,0
555,2552490234375;	548,75;	0,0;	0,0
555,3229370117188;	657,0;	0,0;	0,0
555,390625;	628,25;	0,0;	0,0
555,458251953125;	578,5;	0,0;	0,0
555,52587890625;	575,75;	0,0;	0,0
555,593505859375;	561,75;	0,0;	0,0
555,6611328125;	541,5;	0,0;	0,0
555,7286987304688;	534,5;	0,0;	0,0
555,7963256835938;	556,75;	0,0;	0,0
555,8638916015625;	536,25;	0,0;	0,0
555,931396484375;	546,25;	0,0;	0,0
555,9989624023438;	539,75;	0,0;	0,0
556,0665283203125;	564,75;	0,0;	0,0
556,1339721679688;	545,25;	0,0;	0,0
556,2014770507812;	603,5;	0,0;	0,0
556,26904296875;	557,5;	0,0;	0,0
556,3364868164062;	581,25;	0,0;	0,0
556,4039306640625;	602,25;	0,0;	0,0
556,4713134765625;	527,0;	0,0;	0,0
556,538818359375;	550,25;	0,0;	0,0
556,6062622070312;	542,25;	0,0;	0,0
556,673583984375;	539,0;	0,0;	0,0
556,7410278320312;	667,5;	0,0;	0,0
556,8084716796875;	827,5;	0,0;	0,0
556,875732421875;	775,0;	0,0;	0,0
556,943115234375;	598,5;	0,0;	0,0
557,010498046875;	612,0;	0,0;	0,0
557,0776977539062;	803,25;	0,0;	0,0
557,1450805664062;	1134,75;	0,0;	0,0
557,2123413085938;	874,5;	0,0;	0,0
557,2796020507812;	576,75;	0,0;	0,0
557,346923828125;	506,0;	0,0;	0,0
557,4141235351562;	559,0;	0,0;	0,0
557,4813232421875;	639,75;	0,0;	0,0
557,5485229492188;	530,25;	0,0;	0,0
557,6157836914062;	495,75;	0,0;	0,0
557,6829833984375;	494,5;	0,0;	0,0
557,7501831054688;	433,5;	0,0;	0,0
557,8173217773438;	438,75;	0,0;	0,0
557,8844604492188;	447,0;	0,0;	0,0
557,9515991210938;	489,25;	0,0;	0,0
558,0187377929688;	630,75;	0,0;	0,0
558,0858764648438;	671,75;	0,0;	0,0
558,1528930664062;	531,75;	0,0;	0,0
558,219970703125;	445,0;	0,0;	0,0
558,2869873046875;	460,0;	0,0;	0,0
558,3540649414062;	530,75;	0,0;	0,0
558,421142578125;	683,75;	0,0;	0,0
558,4881591796875;	1222,25;	0,0;	0,0
558,55517578125;	1510,5;	0,0;	0,0
558,6221923828125;	1298,5;	0,0;	0,0
558,6891479492188;	1695,25;	0,0;	0,0
558,7561645507812;	1937,25;	0,0;	0,0
558,8230590820312;	1210,0;	0,0;	0,0
558,8900146484375;	726,25;	0,0;	0,0
558,9569702148438;	552,75;	0,0;	0,0
559,0238037109375;	447,5;	0,0;	0,0
559,0906982421875;	472,0;	0,0;	0,0
559,1576538085938;	551,5;	0,0;	0,0
559,2244262695312;	805,0;	0,0;	0,0
559,2913208007812;	1368,75;	0,0;	0,0
559,358154296875;	1086,25;	0,0;	0,0
559,4249877929688;	629,0;	0,0;	0,0
559,4918212890625;	466,75;	0,0;	0,0
559,5586547851562;	529,0;	0,0;	0,0
559,6253662109375;	691,25;	0,0;	0,0
559,692138671875;	1061,0;	0,0;	0,0
559,7589111328125;	943,0;	0,0;	0,0
559,8256225585938;	557,75;	0,0;	0,0
559,8923950195312;	515,0;	0,0;	0,0
559,9590454101562;	703,5;	0,0;	0,0
560,0257568359375;	687,5;	0,0;	0,0
560,0924682617188;	771,5;	0,0;	0,0
560,1591186523438;	853,75;	0,0;	0,0
560,225830078125;	653,0;	0,0;	0,0
560,29248046875;	434,25;	0,0;	0,0
560,3590698242188;	426,75;	0,0;	0,0
560,4256591796875;	395,25;	0,0;	0,0
560,4921875;	395,25;	0,0;	0,0
560,5587768554688;	433,5;	0,0;	0,0
560,6254272460938;	428,5;	0,0;	0,0
560,6919555664062;	396,25;	0,0;	0,0
560,7584838867188;	435,0;	0,0;	0,0
560,824951171875;	418,0;	0,0;	0,0
560,8914794921875;	422,75;	0,0;	0,0
560,9580688476562;	409,75;	0,0;	0,0
561,0245361328125;	407,5;	0,0;	0,0
561,0909423828125;	428,5;	0,0;	0,0
561,157470703125;	439,0;	0,0;	0,0
561,2238159179688;	520,75;	0,0;	0,0
561,2903442382812;	663,25;	0,0;	0,0
561,3567504882812;	1153,75;	0,0;	0,0
561,4231567382812;	1993,25;	0,0;	0,0
561,489501953125;	1445,5;	0,0;	0,0
561,5558471679688;	674,25;	0,0;	0,0
561,6222534179688;	504,5;	0,0;	0,0
561,6885986328125;	480,25;	0,0;	0,0
561,7548828125;	464,0;	0,0;	0,0
561,8211669921875;	435,75;	0,0;	0,0
561,8875122070312;	391,5;	0,0;	0,0
561,9537963867188;	432,75;	0,0;	0,0
562,0200805664062;	481,5;	0,0;	0,0
562,0863647460938;	443,0;	0,0;	0,0
562,152587890625;	445,75;	0,0;	0,0
562,2188110351562;	515,25;	0,0;	0,0
562,2849731445312;	613,25;	0,0;	0,0
562,3511962890625;	628,25;	0,0;	0,0
562,4174194335938;	534,0;	0,0;	0,0
562,4835205078125;	440,25;	0,0;	0,0
562,5496826171875;	473,5;	0,0;	0,0
562,6159057617188;	444,0;	0,0;	0,0
562,6820068359375;	461,5;	0,0;	0,0
562,748046875;	426,0;	0,0;	0,0
562,814208984375;	438,0;	0,0;	0,0
562,8803100585938;	445,25;	0,0;	0,0
562,9463500976562;	420,0;	0,0;	0,0
563,0123901367188;	431,25;	0,0;	0,0
563,0784301757812;	465,0;	0,0;	0,0
563,14453125;	431,0;	0,0;	0,0
563,21044921875;	450,5;	0,0;	0,0
563,2764892578125;	462,5;	0,0;	0,0
563,3424682617188;	500,0;	0,0;	0,0
563,408447265625;	460,0;	0,0;	0,0
563,4744262695312;	451,5;	0,0;	0,0
563,5404052734375;	489,25;	0,0;	0,0
563,6062622070312;	474,75;	0,0;	0,0
563,6722412109375;	464,0;	0,0;	0,0
563,7380981445312;	518,5;	0,0;	0,0
563,8040161132812;	454,25;	0,0;	0,0
563,869873046875;	451,5;	0,0;	0,0
563,9356689453125;	430,75;	0,0;	0,0
564,0015258789062;	430,0;	0,0;	0,0
564,0673217773438;	428,75;	0,0;	0,0
564,1331787109375;	433,0;	0,0;	0,0
564,1990356445312;	439,25;	0,0;	0,0
564,2647705078125;	431,75;	0,0;	0,0
564,3305053710938;	445,0;	0,0;	0,0
564,3963012695312;	435,75;	0,0;	0,0
564,4620361328125;	460,5;	0,0;	0,0
564,5277709960938;	431,5;	0,0;	0,0
564,593505859375;	429,75;	0,0;	0,0
564,6591796875;	413,0;	0,0;	0,0
564,7249145507812;	426,25;	0,0;	0,0
564,7904663085938;	461,75;	0,0;	0,0
564,856201171875;	462,25;	0,0;	0,0
564,9218139648438;	480,75;	0,0;	0,0
564,9874877929688;	487,5;	0,0;	0,0
565,0530395507812;	462,0;	0,0;	0,0
565,1187133789062;	471,25;	0,0;	0,0
565,1842651367188;	466,0;	0,0;	0,0
565,2498168945312;	493,25;	0,0;	0,0
565,3153686523438;	492,25;	0,0;	0,0
565,3809204101562;	487,5;	0,0;	0,0
565,4464721679688;	524,5;	0,0;	0,0
565,511962890625;	473,5;	0,0;	0,0
565,5774536132812;	500,0;	0,0;	0,0
565,6429443359375;	507,5;	0,0;	0,0
565,7083740234375;	696,75;	0,0;	0,0
565,7738647460938;	620,75;	0,0;	0,0
565,83935546875;	543,25;	0,0;	0,0
565,9047241210938;	472,5;	0,0;	0,0
565,9701538085938;	437,25;	0,0;	0,0
566,0355834960938;	507,75;	0,0;	0,0
566,1009521484375;	604,25;	0,0;	0,0
566,1663208007812;	556,0;	0,0;	0,0
566,2316284179688;	512,75;	0,0;	0,0
566,2969970703125;	451,5;	0,0;	0,0
566,3623657226562;	479,25;	0,0;	0,0
566,4276123046875;	489,5;	0,0;	0,0
566,4929809570312;	459,5;	0,0;	0,0
566,5582275390625;	469,25;	0,0;	0,0
566,6234741210938;	468,25;	0,0;	0,0
566,688720703125;	498,5;	0,0;	0,0
566,7540283203125;	478,75;	0,0;	0,0
566,8192138671875;	478,25;	0,0;	0,0
566,8843994140625;	467,0;	0,0;	0,0
566,9495849609375;	464,0;	0,0;	0,0
567,0147705078125;	458,25;	0,0;	0,0
567,0799560546875;	440,75;	0,0;	0,0
567,1451416015625;	460,5;	0,0;	0,0
567,2102661132812;	448,0;	0,0;	0,0
567,2753295898438;	444,0;	0,0;	0,0
567,3405151367188;	468,5;	0,0;	0,0
567,4055786132812;	478,25;	0,0;	0,0
567,4706420898438;	440,25;	0,0;	0,0
567,5357055664062;	454,0;	0,0;	0,0
567,600830078125;	431,5;	0,0;	0,0
567,6658325195312;	473,75;	0,0;	0,0
567,7308959960938;	477,0;	0,0;	0,0
567,7958374023438;	463,5;	0,0;	0,0
567,86083984375;	509,5;	0,0;	0,0
567,9258422851562;	493,75;	0,0;	0,0
567,9907836914062;	539,75;	0,0;	0,0
568,0557250976562;	578,0;	0,0;	0,0
568,1207275390625;	688,75;	0,0;	0,0
568,185546875;	689,25;	0,0;	0,0
568,25048828125;	618,75;	0,0;	0,0
568,3153686523438;	572,25;	0,0;	0,0
568,3802490234375;	561,0;	0,0;	0,0
568,4451293945312;	579,75;	0,0;	0,0
568,5100708007812;	632,0;	0,0;	0,0
568,5748291015625;	689,25;	0,0;	0,0
568,6396484375;	881,5;	0,0;	0,0
568,7044677734375;	971,0;	0,0;	0,0
568,769287109375;	856,75;	0,0;	0,0
568,8340454101562;	691,5;	0,0;	0,0
568,8987426757812;	609,5;	0,0;	0,0
568,9635009765625;	543,25;	0,0;	0,0
569,0282592773438;	547,0;	0,0;	0,0
569,0929565429688;	488,25;	0,0;	0,0
569,15771484375;	483,75;	0,0;	0,0
569,222412109375;	508,75;	0,0;	0,0
569,2870483398438;	467,5;	0,0;	0,0
569,3517456054688;	472,0;	0,0;	0,0
569,4163818359375;	482,5;	0,0;	0,0
569,4810180664062;	430,25;	0,0;	0,0
569,5455932617188;	462,75;	0,0;	0,0
569,6102294921875;	430,25;	0,0;	0,0
569,6748657226562;	459,0;	0,0;	0,0
569,7393188476562;	457,25;	0,0;	0,0
569,803955078125;	432,5;	0,0;	0,0
569,8685302734375;	420,75;	0,0;	0,0
569,9330444335938;	474,5;	0,0;	0,0
569,9974975585938;	500,5;	0,0;	0,0
570,0620727539062;	496,5;	0,0;	0,0
570,1265258789062;	440,75;	0,0;	0,0
570,1910400390625;	494,25;	0,0;	0,0
570,2554931640625;	440,75;	0,0;	0,0
570,3198852539062;	480,25;	0,0;	0,0
570,3843383789062;	461,25;	0,0;	0,0
570,44873046875;	491,25;	0,0;	0,0
570,51318359375;	497,0;	0,0;	0,0
570,5775756835938;	487,25;	0,0;	0,0
570,6419067382812;	454,0;	0,0;	0,0
570,706298828125;	487,0;	0,0;	0,0
570,7706298828125;	533,0;	0,0;	0,0
570,8349609375;	550,5;	0,0;	0,0
570,8992919921875;	493,0;	0,0;	0,0
570,963623046875;	441,0;	0,0;	0,0
571,02783203125;	446,0;	0,0;	0,0
571,0921020507812;	478,5;	0,0;	0,0
571,1563110351562;	432,25;	0,0;	0,0
571,2206420898438;	427,0;	0,0;	0,0
571,2848510742188;	460,0;	0,0;	0,0
571,3489990234375;	444,0;	0,0;	0,0
571,4132080078125;	429,75;	0,0;	0,0
571,4774169921875;	424,5;	0,0;	0,0
571,5415649414062;	443,5;	0,0;	0,0
571,6057739257812;	439,0;	0,0;	0,0
571,6698608398438;	474,5;	0,0;	0,0
571,7340087890625;	439,25;	0,0;	0,0
571,7981567382812;	399,75;	0,0;	0,0
571,8621826171875;	460,25;	0,0;	0,0
571,92626953125;	423,5;	0,0;	0,0
571,9904174804688;	443,75;	0,0;	0,0
572,0543823242188;	416,5;	0,0;	0,0
572,1184692382812;	439,75;	0,0;	0,0
572,1824951171875;	402,5;	0,0;	0,0
572,2464599609375;	402,25;	0,0;	0,0
572,3104858398438;	431,75;	0,0;	0,0
572,3744506835938;	429,75;	0,0;	0,0
572,4384155273438;	411,25;	0,0;	0,0
572,5023803710938;	419,25;	0,0;	0,0
572,5662841796875;	419,5;	0,0;	0,0
572,6301879882812;	438,75;	0,0;	0,0
572,6941528320312;	405,25;	0,0;	0,0
572,7579956054688;	427,5;	0,0;	0,0
572,8218383789062;	427,0;	0,0;	0,0
572,8856811523438;	403,25;	0,0;	0,0
572,9495849609375;	432,25;	0,0;	0,0
573,013427734375;	467,0;	0,0;	0,0
573,0772705078125;	431,75;	0,0;	0,0
573,1410522460938;	461,0;	0,0;	0,0
573,204833984375;	423,0;	0,0;	0,0
573,2686157226562;	418,0;	0,0;	0,0
573,3323364257812;	410,0;	0,0;	0,0
573,3961181640625;	422,75;	0,0;	0,0
573,4598388671875;	421,0;	0,0;	0,0
573,5235595703125;	428,5;	0,0;	0,0
573,5872192382812;	386,5;	0,0;	0,0
573,6509399414062;	363,0;	0,0;	0,0
573,714599609375;	387,75;	0,0;	0,0
573,7781982421875;	430,5;	0,0;	0,0
573,8418579101562;	451,75;	0,0;	0,0
573,905517578125;	421,25;	0,0;	0,0
573,9691162109375;	402,5;	0,0;	0,0
574,0327758789062;	414,25;	0,0;	0,0
574,0963745117188;	408,75;	0,0;	0,0
574,1598510742188;	436,75;	0,0;	0,0
574,2234497070312;	409,0;	0,0;	0,0
574,2869873046875;	432,75;	0,0;	0,0
574,3504638671875;	430,0;	0,0;	0,0
574,4140014648438;	401,75;	0,0;	0,0
574,4775390625;	415,25;	0,0;	0,0
574,5409545898438;	413,5;	0,0;	0,0
574,6044921875;	419,75;	0,0;	0,0
574,6679077148438;	409,0;	0,0;	0,0
574,7313232421875;	415,75;	0,0;	0,0
574,7947998046875;	392,0;	0,0;	0,0
574,858154296875;	418,75;	0,0;	0,0
574,9215698242188;	409,25;	0,0;	0,0
574,98486328125;	420,5;	0,0;	0,0
575,04833984375;	459,75;	0,0;	0,0
575,1116943359375;	468,5;	0,0;	0,0
575,1749877929688;	507,75;	0,0;	0,0
575,2383422851562;	497,0;	0,0;	0,0
575,3016357421875;	417,25;	0,0;	0,0
575,3648681640625;	440,75;	0,0;	0,0
575,42822265625;	408,25;	0,0;	0,0
575,491455078125;	409,25;	0,0;	0,0
575,5546264648438;	422,5;	0,0;	0,0
575,617919921875;	406,5;	0,0;	0,0
575,6810913085938;	437,75;	0,0;	0,0
575,7442626953125;	422,0;	0,0;	0,0
575,8074951171875;	429,0;	0,0;	0,0
575,8706665039062;	436,25;	0,0;	0,0
575,933837890625;	457,25;	0,0;	0,0
575,9969482421875;	404,75;	0,0;	0,0
576,06005859375;	462,5;	0,0;	0,0
576,1232299804688;	575,5;	0,0;	0,0
576,186279296875;	578,0;	0,0;	0,0
576,2493896484375;	474,0;	0,0;	0,0
576,3125;	432,25;	0,0;	0,0
576,37548828125;	427,25;	0,0;	0,0
576,4385375976562;	437,75;	0,0;	0,0
576,5015869140625;	399,0;	0,0;	0,0
576,5645751953125;	431,5;	0,0;	0,0
576,6275634765625;	436,0;	0,0;	0,0
576,6904907226562;	429,0;	0,0;	0,0
576,7534790039062;	421,75;	0,0;	0,0
576,8164672851562;	440,5;	0,0;	0,0
576,87939453125;	430,75;	0,0;	0,0
576,9423217773438;	390,5;	0,0;	0,0
577,0052490234375;	408,0;	0,0;	0,0
577,068115234375;	419,25;	0,0;	0,0
577,1309814453125;	392,25;	0,0;	0,0
577,1939086914062;	396,25;	0,0;	0,0
577,2567138671875;	417,25;	0,0;	0,0
577,3195190429688;	428,5;	0,0;	0,0
577,38232421875;	412,0;	0,0;	0,0
577,4451293945312;	427,0;	0,0;	0,0
577,5079956054688;	402,0;	0,0;	0,0
577,5706787109375;	414,0;	0,0;	0,0
577,6334838867188;	427,25;	0,0;	0,0
577,6962890625;	399,0;	0,0;	0,0
577,7589721679688;	403,5;	0,0;	0,0
577,8216552734375;	417,0;	0,0;	0,0
577,8843994140625;	431,5;	0,0;	0,0
577,947021484375;	463,0;	0,0;	0,0
578,009765625;	448,0;	0,0;	0,0
578,0723876953125;	480,75;	0,0;	0,0
578,135009765625;	477,5;	0,0;	0,0
578,1976928710938;	425,25;	0,0;	0,0
578,2601928710938;	406,0;	0,0;	0,0
578,3228149414062;	430,5;	0,0;	0,0
578,3854370117188;	424,25;	0,0;	0,0
578,447998046875;	437,25;	0,0;	0,0
578,5105590820312;	419,0;	0,0;	0,0
578,5731201171875;	413,5;	0,0;	0,0
578,6356201171875;	425,75;	0,0;	0,0
578,6981811523438;	432,0;	0,0;	0,0
578,7605590820312;	436,5;	0,0;	0,0
578,8231201171875;	481,5;	0,0;	0,0
578,8855590820312;	434,25;	0,0;	0,0
578,9479370117188;	459,75;	0,0;	0,0
579,0104370117188;	455,5;	0,0;	0,0
579,0728149414062;	444,75;	0,0;	0,0
579,1351928710938;	435,25;	0,0;	0,0
579,1976318359375;	412,5;	0,0;	0,0
579,260009765625;	413,25;	0,0;	0,0
579,3223266601562;	423,25;	0,0;	0,0
579,3847045898438;	421,75;	0,0;	0,0
579,447021484375;	420,5;	0,0;	0,0
579,5093383789062;	440,25;	0,0;	0,0
579,5716552734375;	418,5;	0,0;	0,0
579,6339111328125;	467,0;	0,0;	0,0
579,6962280273438;	450,75;	0,0;	0,0
579,7583618164062;	427,75;	0,0;	0,0
579,8206787109375;	404,5;	0,0;	0,0
579,8829345703125;	431,25;	0,0;	0,0
579,9451293945312;	475,0;	0,0;	0,0
580,0072631835938;	485,25;	0,0;	0,0
580,0695190429688;	464,75;	0,0;	0,0
580,131591796875;	483,75;	0,0;	0,0
580,1937866210938;	456,5;	0,0;	0,0
580,2559204101562;	459,5;	0,0;	0,0
580,3180541992188;	434,5;	0,0;	0,0
580,3801879882812;	457,75;	0,0;	0,0
580,4421997070312;	456,25;	0,0;	0,0
580,5043334960938;	439,25;	0,0;	0,0
580,56640625;	455,75;	0,0;	0,0
580,62841796875;	441,25;	0,0;	0,0
580,6904907226562;	431,75;	0,0;	0,0
580,7525024414062;	443,5;	0,0;	0,0
580,814453125;	450,0;	0,0;	0,0
580,87646484375;	445,75;	0,0;	0,0
580,9384765625;	421,5;	0,0;	0,0
581,0003662109375;	434,25;	0,0;	0,0
581,0623779296875;	424,25;	0,0;	0,0
581,124267578125;	437,5;	0,0;	0,0
581,1861572265625;	446,25;	0,0;	0,0
581,2481079101562;	423,25;	0,0;	0,0
581,3099365234375;	451,0;	0,0;	0,0
581,371826171875;	467,0;	0,0;	0,0
581,4336547851562;	459,25;	0,0;	0,0
581,4954833984375;	474,0;	0,0;	0,0
581,557373046875;	472,0;	0,0;	0,0
581,619140625;	443,5;	0,0;	0,0
581,680908203125;	421,5;	0,0;	0,0
581,7427368164062;	433,5;	0,0;	0,0
581,804443359375;	446,0;	0,0;	0,0
581,8662109375;	428,0;	0,0;	0,0
581,9279174804688;	479,75;	0,0;	0,0
581,9896850585938;	446,75;	0,0;	0,0
582,0513916015625;	464,25;	0,0;	0,0
582,113037109375;	490,5;	0,0;	0,0
582,1747436523438;	472,5;	0,0;	0,0
582,2363891601562;	479,75;	0,0;	0,0
582,2979736328125;	437,75;	0,0;	0,0
582,359619140625;	444,5;	0,0;	0,0
582,4212646484375;	466,25;	0,0;	0,0
582,4828491210938;	469,75;	0,0;	0,0
582,5444946289062;	463,75;	0,0;	0,0
582,6060180664062;	457,75;	0,0;	0,0
582,6675415039062;	467,25;	0,0;	0,0
582,7290649414062;	483,5;	0,0;	0,0
582,7905883789062;	464,75;	0,0;	0,0
582,8521118164062;	450,75;	0,0;	0,0
582,9136352539062;	479,75;	0,0;	0,0
582,9750366210938;	465,0;	0,0;	0,0
583,0365600585938;	456,25;	0,0;	0,0
583,0980224609375;	497,25;	0,0;	0,0
583,159423828125;	477,25;	0,0;	0,0
583,2208862304688;	516,25;	0,0;	0,0
583,2822875976562;	504,5;	0,0;	0,0
583,3436279296875;	516,0;	0,0;	0,0
583,405029296875;	475,5;	0,0;	0,0
583,46630859375;	452,5;	0,0;	0,0
583,5277099609375;	465,5;	0,0;	0,0
583,5890502929688;	474,25;	0,0;	0,0
583,6503295898438;	458,5;	0,0;	0,0
583,711669921875;	504,75;	0,0;	0,0
583,77294921875;	441,25;	0,0;	0,0
583,8341674804688;	491,75;	0,0;	0,0
583,8955078125;	462,5;	0,0;	0,0
583,9567260742188;	467,25;	0,0;	0,0
584,0179443359375;	451,25;	0,0;	0,0
584,0791015625;	457,5;	0,0;	0,0
584,1403198242188;	475,75;	0,0;	0,0
584,2014770507812;	463,25;	0,0;	0,0
584,2626342773438;	456,5;	0,0;	0,0
584,3237915039062;	457,0;	0,0;	0,0
584,3849487304688;	487,25;	0,0;	0,0
584,4459838867188;	505,25;	0,0;	0,0
584,5071411132812;	450,5;	0,0;	0,0
584,5682373046875;	458,75;	0,0;	0,0
584,6293334960938;	464,0;	0,0;	0,0
584,6903076171875;	437,5;	0,0;	0,0
584,7514038085938;	485,0;	0,0;	0,0
584,8123779296875;	464,75;	0,0;	0,0
584,8734130859375;	474,25;	0,0;	0,0
584,9344482421875;	468,0;	0,0;	0,0
584,9954223632812;	521,75;	0,0;	0,0
585,056396484375;	492,5;	0,0;	0,0
585,1173095703125;	510,75;	0,0;	0,0
585,1782836914062;	517,5;	0,0;	0,0
585,2391967773438;	502,5;	0,0;	0,0
585,3001098632812;	516,75;	0,0;	0,0
585,3609619140625;	478,25;	0,0;	0,0
585,4219360351562;	566,75;	0,0;	0,0
585,4827270507812;	621,25;	0,0;	0,0
585,5435791015625;	795,75;	0,0;	0,0
585,6044311523438;	1057,75;	0,0;	0,0
585,6652221679688;	843,0;	0,0;	0,0
585,72607421875;	663,75;	0,0;	0,0
585,7868041992188;	610,0;	0,0;	0,0
585,8475952148438;	566,25;	0,0;	0,0
585,9083251953125;	537,25;	0,0;	0,0
585,9690551757812;	528,5;	0,0;	0,0
586,02978515625;	564,75;	0,0;	0,0
586,090576171875;	593,0;	0,0;	0,0
586,1511840820312;	544,0;	0,0;	0,0
586,2118530273438;	530,0;	0,0;	0,0
586,2725830078125;	525,75;	0,0;	0,0
586,3331909179688;	506,75;	0,0;	0,0
586,393798828125;	508,0;	0,0;	0,0
586,4544067382812;	524,0;	0,0;	0,0
586,5150146484375;	532,5;	0,0;	0,0
586,57568359375;	584,75;	0,0;	0,0
586,6361694335938;	520,75;	0,0;	0,0
586,6967163085938;	556,0;	0,0;	0,0
586,7573852539062;	541,5;	0,0;	0,0
586,8178100585938;	610,25;	0,0;	0,0
586,8783569335938;	583,25;	0,0;	0,0
586,9388427734375;	585,75;	0,0;	0,0
586,9993896484375;	567,5;	0,0;	0,0
587,0598754882812;	603,75;	0,0;	0,0
587,1202392578125;	595,0;	0,0;	0,0
587,1807250976562;	618,5;	0,0;	0,0
587,2410888671875;	622,25;	0,0;	0,0
587,301513671875;	592,25;	0,0;	0,0
587,3619384765625;	612,25;	0,0;	0,0
587,4223022460938;	650,5;	0,0;	0,0
587,482666015625;	638,25;	0,0;	0,0
587,5430297851562;	688,0;	0,0;	0,0
587,6033325195312;	694,0;	0,0;	0,0
587,6636352539062;	693,0;	0,0;	0,0
587,7239990234375;	704,75;	0,0;	0,0
587,7841796875;	695,0;	0,0;	0,0
587,8445434570312;	725,5;	0,0;	0,0
587,90478515625;	787,0;	0,0;	0,0
587,9649658203125;	829,0;	0,0;	0,0
588,0252075195312;	835,25;	0,0;	0,0
588,08544921875;	922,5;	0,0;	0,0
588,1456298828125;	996,25;	0,0;	0,0
588,205810546875;	1124,5;	0,0;	0,0
588,2659301757812;	1232,5;	0,0;	0,0
588,3261108398438;	1420,0;	0,0;	0,0
588,3862915039062;	1627,25;	0,0;	0,0
588,4464111328125;	1996,0;	0,0;	0,0
588,5065307617188;	2600,75;	0,0;	0,0
588,5665893554688;	3608,25;	0,0;	0,0
588,6266479492188;	5511,5;	0,0;	0,0
588,6867065429688;	9036,0;	0,0;	0,0
588,7467041015625;	15836,0;	0,0;	0,0
588,8067626953125;	16383,75;	0,0;	0,0
588,8667602539062;	16383,75;	0,0;	0,0
588,9267578125;	16383,75;	0,0;	0,0
588,9867553710938;	12473,5;	0,0;	0,0
589,0467529296875;	7046,0;	0,0;	0,0
589,106689453125;	4851,75;	0,0;	0,0
589,1666259765625;	4336,25;	0,0;	0,0
589,2265625;	4630,0;	0,0;	0,0
589,2864379882812;	6879,75;	0,0;	0,0
589,3463745117188;	12156,0;	0,0;	0,0
589,4061889648438;	16383,75;	0,0;	0,0
589,466064453125;	16383,75;	0,0;	0,0
589,5259399414062;	16383,75;	0,0;	0,0
589,5857543945312;	8393,75;	0,0;	0,0
589,6455688476562;	4323,5;	0,0;	0,0
589,7053833007812;	2714,0;	0,0;	0,0
589,76513671875;	1961,25;	0,0;	0,0
589,824951171875;	1564,0;	0,0;	0,0
589,8847045898438;	1394,75;	0,0;	0,0
589,9443969726562;	1244,25;	0,0;	0,0
590,004150390625;	1177,0;	0,0;	0,0
590,0638427734375;	1100,5;	0,0;	0,0
590,12353515625;	984,5;	0,0;	0,0
590,1832275390625;	893,25;	0,0;	0,0
590,2428588867188;	900,5;	0,0;	0,0
590,302490234375;	843,5;	0,0;	0,0
590,3621215820312;	811,25;	0,0;	0,0
590,4217529296875;	848,25;	0,0;	0,0
590,4813842773438;	801,0;	0,0;	0,0
590,5409545898438;	770,75;	0,0;	0,0
590,6005249023438;	787,75;	0,0;	0,0
590,6600952148438;	743,5;	0,0;	0,0
590,7196044921875;	776,5;	0,0;	0,0
590,7791137695312;	690,5;	0,0;	0,0
590,8386840820312;	697,75;	0,0;	0,0
590,8981323242188;	724,25;	0,0;	0,0
590,9576416015625;	705,75;	0,0;	0,0
591,0170288085938;	723,75;	0,0;	0,0
591,0765380859375;	714,25;	0,0;	0,0
591,135986328125;	756,25;	0,0;	0,0
591,1953735351562;	758,0;	0,0;	0,0
591,2547607421875;	797,75;	0,0;	0,0
591,314208984375;	716,75;	0,0;	0,0
591,37353515625;	676,5;	0,0;	0,0
591,4329223632812;	642,0;	0,0;	0,0
591,4922485351562;	669,5;	0,0;	0,0
591,551513671875;	681,75;	0,0;	0,0
591,6109008789062;	619,75;	0,0;	0,0
591,670166015625;	649,75;	0,0;	0,0
591,7294921875;	603,0;	0,0;	0,0
591,7887573242188;	673,25;	0,0;	0,0
591,847900390625;	639,25;	0,0;	0,0
591,9071655273438;	615,25;	0,0;	0,0
591,9664306640625;	649,25;	0,0;	0,0
592,025634765625;	619,5;	0,0;	0,0
592,0847778320312;	633,5;	0,0;	0,0
592,1439819335938;	633,5;	0,0;	0,0
592,203125;	657,0;	0,0;	0,0
592,2622680664062;	596,5;	0,0;	0,0
592,3214111328125;	632,75;	0,0;	0,0
592,3804931640625;	603,75;	0,0;	0,0
592,4396362304688;	641,25;	0,0;	0,0
592,4987182617188;	654,0;	0,0;	0,0
592,5577392578125;	660,25;	0,0;	0,0
592,6167602539062;	633,25;	0,0;	0,0
592,6758422851562;	589,25;	0,0;	0,0
592,73486328125;	654,0;	0,0;	0,0
592,7938842773438;	676,5;	0,0;	0,0
592,8528442382812;	708,5;	0,0;	0,0
592,9118041992188;	667,0;	0,0;	0,0
592,9707641601562;	614,5;	0,0;	0,0
593,0297241210938;	635,0;	0,0;	0,0
593,0886840820312;	605,25;	0,0;	0,0
593,1475219726562;	664,25;	0,0;	0,0
593,2064819335938;	615,5;	0,0;	0,0
593,2652587890625;	634,75;	0,0;	0,0
593,32421875;	638,0;	0,0;	0,0
593,383056640625;	662,0;	0,0;	0,0
593,44189453125;	632,0;	0,0;	0,0
593,5006713867188;	578,25;	0,0;	0,0
593,5595703125;	611,75;	0,0;	0,0
593,6182861328125;	565,5;	0,0;	0,0
593,6770629882812;	573,0;	0,0;	0,0
593,73583984375;	599,0;	0,0;	0,0
593,7945556640625;	583,0;	0,0;	0,0
593,853271484375;	618,25;	0,0;	0,0
593,9119262695312;	599,75;	0,0;	0,0
593,970703125;	551,5;	0,0;	0,0
594,0293579101562;	601,5;	0,0;	0,0
594,0880126953125;	581,0;	0,0;	0,0
594,146728515625;	604,0;	0,0;	0,0
594,205322265625;	548,75;	0,0;	0,0
594,263916015625;	552,75;	0,0;	0,0
594,3225708007812;	551,25;	0,0;	0,0
594,3811645507812;	553,5;	0,0;	0,0
594,439697265625;	557,0;	0,0;	0,0
594,498291015625;	571,25;	0,0;	0,0
594,5567626953125;	545,25;	0,0;	0,0
594,6153564453125;	550,5;	0,0;	0,0
594,673828125;	537,25;	0,0;	0,0
594,7322998046875;	588,0;	0,0;	0,0
594,790771484375;	511,5;	0,0;	0,0
594,8492431640625;	560,0;	0,0;	0,0
594,90771484375;	543,25;	0,0;	0,0
594,9661254882812;	532,5;	0,0;	0,0
595,0245971679688;	577,0;	0,0;	0,0
595,0829467773438;	537,25;	0,0;	0,0
595,141357421875;	571,5;	0,0;	0,0
595,19970703125;	539,0;	0,0;	0,0
595,2581176757812;	568,25;	0,0;	0,0
595,3164672851562;	552,0;	0,0;	0,0
595,374755859375;	569,0;	0,0;	0,0
595,4330444335938;	564,25;	0,0;	0,0
595,4913330078125;	556,5;	0,0;	0,0
595,5496215820312;	575,0;	0,0;	0,0
595,60791015625;	547,5;	0,0;	0,0
595,6661987304688;	553,5;	0,0;	0,0
595,724365234375;	534,0;	0,0;	0,0
595,7825927734375;	539,75;	0,0;	0,0
595,8408203125;	513,0;	0,0;	0,0
595,8989868164062;	523,25;	0,0;	0,0
595,9572143554688;	537,75;	0,0;	0,0
596,0153198242188;	537,5;	0,0;	0,0
596,073486328125;	547,75;	0,0;	0,0
596,1315307617188;	565,5;	0,0;	0,0
596,1896362304688;	554,5;	0,0;	0,0
596,247802734375;	578,75;	0,0;	0,0
596,3058471679688;	577,75;	0,0;	0,0
596,3638916015625;	542,75;	0,0;	0,0
596,4219970703125;	552,75;	0,0;	0,0
596,47998046875;	568,75;	0,0;	0,0
596,5380249023438;	559,75;	0,0;	0,0
596,5960083007812;	613,25;	0,0;	0,0
596,6539916992188;	575,75;	0,0;	0,0
596,7119750976562;	559,75;	0,0;	0,0
596,7698364257812;	562,25;	0,0;	0,0
596,8278198242188;	567,75;	0,0;	0,0
596,8858032226562;	582,0;	0,0;	0,0
596,9436645507812;	542,75;	0,0;	0,0
597,0015869140625;	598,75;	0,0;	0,0
597,0595092773438;	536,5;	0,0;	0,0
597,1173095703125;	595,25;	0,0;	0,0
597,1751098632812;	579,5;	0,0;	0,0
597,2329711914062;	534,75;	0,0;	0,0
597,290771484375;	568,25;	0,0;	0,0
597,3486328125;	586,25;	0,0;	0,0
597,4063110351562;	582,5;	0,0;	0,0
597,4641723632812;	595,75;	0,0;	0,0
597,5219116210938;	620,75;	0,0;	0,0
597,57958984375;	605,5;	0,0;	0,0
597,6373291015625;	591,5;	0,0;	0,0
597,695068359375;	552,75;	0,0;	0,0
597,7527465820312;	531,75;	0,0;	0,0
597,8104248046875;	560,75;	0,0;	0,0
597,8681030273438;	567,25;	0,0;	0,0
597,9257202148438;	524,75;	0,0;	0,0
597,9833374023438;	569,75;	0,0;	0,0
598,0408935546875;	576,75;	0,0;	0,0
598,0985107421875;	569,75;	0,0;	0,0
598,1561279296875;	627,0;	0,0;	0,0
598,2136840820312;	674,25;	0,0;	0,0
598,271240234375;	661,75;	0,0;	0,0
598,3287353515625;	668,25;	0,0;	0,0
598,3862915039062;	639,25;	0,0;	0,0
598,44384765625;	667,5;	0,0;	0,0
598,5012817382812;	610,5;	0,0;	0,0
598,5587158203125;	615,75;	0,0;	0,0
598,6162109375;	610,0;	0,0;	0,0
598,673583984375;	557,5;	0,0;	0,0
598,7310791015625;	525,25;	0,0;	0,0
598,7885131835938;	597,25;	0,0;	0,0
598,8458251953125;	553,75;	0,0;	0,0
598,9032592773438;	547,5;	0,0;	0,0
598,9605712890625;	535,75;	0,0;	0,0
599,0179443359375;	541,5;	0,0;	0,0
599,0753173828125;	551,5;	0,0;	0,0
599,132568359375;	519,25;	0,0;	0,0
599,1898803710938;	575,75;	0,0;	0,0
599,2472534179688;	559,75;	0,0;	0,0
599,3043823242188;	539,25;	0,0;	0,0
599,3616943359375;	565,75;	0,0;	0,0
599,4189453125;	530,0;	0,0;	0,0
599,4761352539062;	585,25;	0,0;	0,0
599,5333251953125;	557,75;	0,0;	0,0
599,5905151367188;	567,5;	0,0;	0,0
599,647705078125;	526,75;	0,0;	0,0
599,7049560546875;	503,5;	0,0;	0,0
599,7620239257812;	549,0;	0,0;	0,0
599,8191528320312;	540,25;	0,0;	0,0
599,8762817382812;	534,25;	0,0;	0,0
599,933349609375;	547,75;	0,0;	0,0
599,9904174804688;	564,25;	0,0;	0,0
600,0475463867188;	568,5;	0,0;	0,0
600,1045532226562;	558,5;	0,0;	0,0
600,16162109375;	605,0;	0,0;	0,0
600,2186279296875;	590,25;	0,0;	0,0
600,2755737304688;	622,5;	0,0;	0,0
600,3326416015625;	595,75;	0,0;	0,0
600,3895874023438;	603,25;	0,0;	0,0
600,446533203125;	584,5;	0,0;	0,0
600,5034790039062;	542,5;	0,0;	0,0
600,5603637695312;	580,75;	0,0;	0,0
600,6172485351562;	584,75;	0,0;	0,0
600,6742553710938;	619,0;	0,0;	0,0
600,7310791015625;	582,75;	0,0;	0,0
600,7879028320312;	593,75;	0,0;	0,0
600,8447265625;	541,25;	0,0;	0,0
600,9015502929688;	529,25;	0,0;	0,0
600,9584350585938;	512,5;	0,0;	0,0
601,0151977539062;	518,25;	0,0;	0,0
601,0719604492188;	547,25;	0,0;	0,0
601,1287231445312;	499,0;	0,0;	0,0
601,185546875;	582,0;	0,0;	0,0
601,2422485351562;	510,75;	0,0;	0,0
601,2989501953125;	531,0;	0,0;	0,0
601,355712890625;	526,5;	0,0;	0,0
601,412353515625;	542,5;	0,0;	0,0
601,468994140625;	547,0;	0,0;	0,0
601,5256958007812;	551,75;	0,0;	0,0
601,5823364257812;	560,0;	0,0;	0,0
601,6389770507812;	564,75;	0,0;	0,0
601,695556640625;	552,75;	0,0;	0,0
601,7521362304688;	576,5;	0,0;	0,0
601,8087158203125;	590,25;	0,0;	0,0
601,8652954101562;	673,5;	0,0;	0,0
601,9218139648438;	636,25;	0,0;	0,0
601,9783935546875;	603,75;	0,0;	0,0
602,034912109375;	582,75;	0,0;	0,0
602,0913696289062;	596,5;	0,0;	0,0
602,1478271484375;	607,25;	0,0;	0,0
602,204345703125;	669,5;	0,0;	0,0
602,2608032226562;	719,75;	0,0;	0,0
602,3171997070312;	646,75;	0,0;	0,0
602,3736572265625;	590,25;	0,0;	0,0
602,4300537109375;	551,5;	0,0;	0,0
602,4864501953125;	561,25;	0,0;	0,0
602,5427856445312;	596,75;	0,0;	0,0
602,5991821289062;	615,25;	0,0;	0,0
602,655517578125;	546,5;	0,0;	0,0
602,7117919921875;	538,75;	0,0;	0,0
602,7681274414062;	523,5;	0,0;	0,0
602,824462890625;	488,25;	0,0;	0,0
602,8806762695312;	538,0;	0,0;	0,0
602,93701171875;	512,75;	0,0;	0,0
602,9932250976562;	531,25;	0,0;	0,0
603,0494384765625;	534,25;	0,0;	0,0
603,105712890625;	530,5;	0,0;	0,0
603,161865234375;	555,0;	0,0;	0,0
603,2180786132812;	528,25;	0,0;	0,0
603,2742309570312;	547,5;	0,0;	0,0
603,3303833007812;	530,0;	0,0;	0,0
603,3865356445312;	521,25;	0,0;	0,0
603,4426879882812;	517,5;	0,0;	0,0
603,498779296875;	517,5;	0,0;	0,0
603,5548706054688;	503,25;	0,0;	0,0
603,6109008789062;	501,0;	0,0;	0,0
603,6669311523438;	535,5;	0,0;	0,0
603,7230224609375;	534,25;	0,0;	0,0
603,7789916992188;	536,25;	0,0;	0,0
603,8350219726562;	529,0;	0,0;	0,0
603,8909912109375;	516,0;	0,0;	0,0
603,947021484375;	550,75;	0,0;	0,0
604,0030517578125;	566,0;	0,0;	0,0
604,0589599609375;	536,0;	0,0;	0,0
604,1148681640625;	549,0;	0,0;	0,0
604,1707763671875;	590,5;	0,0;	0,0
604,2266845703125;	540,75;	0,0;	0,0
604,2825317382812;	556,5;	0,0;	0,0
604,3385009765625;	549,5;	0,0;	0,0
604,394287109375;	533,5;	0,0;	0,0
604,4501342773438;	560,75;	0,0;	0,0
604,5059204101562;	508,75;	0,0;	0,0
604,5617065429688;	536,75;	0,0;	0,0
604,6175537109375;	571,75;	0,0;	0,0
604,67333984375;	574,75;	0,0;	0,0
604,7290649414062;	554,25;	0,0;	0,0
604,7847900390625;	565,75;	0,0;	0,0
604,8405151367188;	520,25;	0,0;	0,0
604,896240234375;	524,75;	0,0;	0,0
604,9519653320312;	504,75;	0,0;	0,0
605,007568359375;	548,5;	0,0;	0,0
605,0632934570312;	522,25;	0,0;	0,0
605,118896484375;	566,5;	0,0;	0,0
605,174560546875;	604,25;	0,0;	0,0
605,2301635742188;	571,75;	0,0;	0,0
605,2857666015625;	560,75;	0,0;	0,0
605,34130859375;	592,0;	0,0;	0,0
605,3969116210938;	579,25;	0,0;	0,0
605,4524536132812;	617,0;	0,0;	0,0
605,5079956054688;	623,25;	0,0;	0,0
605,5635375976562;	572,75;	0,0;	0,0
605,6190185546875;	587,5;	0,0;	0,0
605,674560546875;	565,5;	0,0;	0,0
605,7299194335938;	542,5;	0,0;	0,0
605,7854614257812;	573,5;	0,0;	0,0
605,8409423828125;	521,75;	0,0;	0,0
605,896240234375;	539,75;	0,0;	0,0
605,9517211914062;	551,25;	0,0;	0,0
606,0070190429688;	571,75;	0,0;	0,0
606,0625;	537,25;	0,0;	0,0
606,1178588867188;	586,25;	0,0;	0,0
606,1732177734375;	601,75;	0,0;	0,0
606,228515625;	589,0;	0,0;	0,0
606,2838745117188;	562,25;	0,0;	0,0
606,339111328125;	645,5;	0,0;	0,0
606,3944091796875;	737,0;	0,0;	0,0
606,44970703125;	638,25;	0,0;	0,0
606,5048828125;	583,5;	0,0;	0,0
606,5601806640625;	546,5;	0,0;	0,0
606,6153564453125;	507,25;	0,0;	0,0
606,6705322265625;	562,0;	0,0;	0,0
606,7257690429688;	511,5;	0,0;	0,0
606,781005859375;	533,25;	0,0;	0,0
606,8360595703125;	516,25;	0,0;	0,0
606,8912353515625;	504,0;	0,0;	0,0
606,9463500976562;	503,5;	0,0;	0,0
607,0014038085938;	495,75;	0,0;	0,0
607,0565795898438;	510,5;	0,0;	0,0
607,1116333007812;	500,5;	0,0;	0,0
607,1666870117188;	469,0;	0,0;	0,0
607,2216796875;	539,75;	0,0;	0,0
607,2767333984375;	531,25;	0,0;	0,0
607,331787109375;	511,75;	0,0;	0,0
607,38671875;	499,75;	0,0;	0,0
607,4417114257812;	514,5;	0,0;	0,0
607,4967041015625;	513,75;	0,0;	0,0
607,5515747070312;	544,5;	0,0;	0,0
607,6065673828125;	494,75;	0,0;	0,0
607,6615600585938;	530,75;	0,0;	0,0
607,7163696289062;	542,75;	0,0;	0,0
607,771240234375;	530,25;	0,0;	0,0
607,8261108398438;	526,75;	0,0;	0,0
607,8809814453125;	523,25;	0,0;	0,0
607,935791015625;	535,75;	0,0;	0,0
607,9906005859375;	516,75;	0,0;	0,0
608,0454711914062;	527,5;	0,0;	0,0
608,1001586914062;	517,25;	0,0;	0,0
608,1549682617188;	550,0;	0,0;	0,0
608,2097778320312;	523,25;	0,0;	0,0
608,2645263671875;	531,25;	0,0;	0,0
608,3191528320312;	545,75;	0,0;	0,0
608,3739013671875;	499,0;	0,0;	0,0
608,4285888671875;	537,5;	0,0;	0,0
608,4832153320312;	510,0;	0,0;	0,0
608,5379638671875;	504,0;	0,0;	0,0
608,5925903320312;	530,75;	0,0;	0,0
608,647216796875;	554,0;	0,0;	0,0
608,7017822265625;	554,75;	0,0;	0,0
608,7564086914062;	536,5;	0,0;	0,0
608,8109741210938;	530,5;	0,0;	0,0
608,8656005859375;	539,75;	0,0;	0,0
608,9201049804688;	514,5;	0,0;	0,0
608,974609375;	520,25;	0,0;	0,0
609,0291137695312;	511,75;	0,0;	0,0
609,0836181640625;	512,25;	0,0;	0,0
609,1381225585938;	518,25;	0,0;	0,0
609,1925659179688;	528,75;	0,0;	0,0
609,2470092773438;	526,0;	0,0;	0,0
609,3014526367188;	563,25;	0,0;	0,0
609,3558349609375;	524,0;	0,0;	0,0
609,4102783203125;	558,0;	0,0;	0,0
609,4646606445312;	584,75;	0,0;	0,0
609,51904296875;	618,0;	0,0;	0,0
609,5734252929688;	606,5;	0,0;	0,0
609,627685546875;	589,0;	0,0;	0,0
609,6820678710938;	564,0;	0,0;	0,0
609,7363891601562;	547,75;	0,0;	0,0
609,7906494140625;	535,5;	0,0;	0,0
609,844970703125;	558,75;	0,0;	0,0
609,899169921875;	553,0;	0,0;	0,0
609,953369140625;	618,5;	0,0;	0,0
610,0076293945312;	711,25;	0,0;	0,0
610,0618286132812;	908,75;	0,0;	0,0
610,1160888671875;	1140,75;	0,0;	0,0
610,170166015625;	1162,0;	0,0;	0,0
610,224365234375;	1007,75;	0,0;	0,0
610,2785034179688;	763,0;	0,0;	0,0
610,3327026367188;	582,75;	0,0;	0,0
610,3867797851562;	520,75;	0,0;	0,0
610,4408569335938;	551,5;	0,0;	0,0
610,4949340820312;	531,75;	0,0;	0,0
610,549072265625;	576,0;	0,0;	0,0
610,6030883789062;	555,75;	0,0;	0,0
610,6571044921875;	543,25;	0,0;	0,0
610,7111206054688;	535,75;	0,0;	0,0
610,7650756835938;	578,25;	0,0;	0,0
610,819091796875;	542,0;	0,0;	0,0
610,8731079101562;	571,75;	0,0;	0,0
610,9270629882812;	559,5;	0,0;	0,0
610,98095703125;	588,25;	0,0;	0,0
611,034912109375;	559,0;	0,0;	0,0
611,0887451171875;	553,0;	0,0;	0,0
611,1427001953125;	534,75;	0,0;	0,0
611,1965942382812;	570,25;	0,0;	0,0
611,2503662109375;	596,0;	0,0;	0,0
611,30419921875;	573,5;	0,0;	0,0
611,3580322265625;	578,5;	0,0;	0,0
611,411865234375;	587,75;	0,0;	0,0
611,4656982421875;	588,0;	0,0;	0,0
611,5194702148438;	570,0;	0,0;	0,0
611,5731811523438;	584,75;	0,0;	0,0
611,626953125;	577,25;	0,0;	0,0
611,6806640625;	603,75;	0,0;	0,0
611,734375;	555,0;	0,0;	0,0
611,7880859375;	603,5;	0,0;	0,0
611,8417358398438;	597,25;	0,0;	0,0
611,8953857421875;	693,0;	0,0;	0,0
611,9490356445312;	865,25;	0,0;	0,0
612,002685546875;	1187,5;	0,0;	0,0
612,0562744140625;	1747,75;	0,0;	0,0
612,1099243164062;	1671,0;	0,0;	0,0
612,1635131835938;	1138,5;	0,0;	0,0
612,2171020507812;	755,0;	0,0;	0,0
612,2705688476562;	607,25;	0,0;	0,0
612,3241577148438;	617,25;	0,0;	0,0
612,3776245117188;	607,5;	0,0;	0,0
612,4310913085938;	590,75;	0,0;	0,0
612,484619140625;	552,5;	0,0;	0,0
612,5380859375;	606,0;	0,0;	0,0
612,591552734375;	594,0;	0,0;	0,0
612,64501953125;	591,25;	0,0;	0,0
612,6983642578125;	593,25;	0,0;	0,0
612,7518310546875;	600,75;	0,0;	0,0
612,80517578125;	590,5;	0,0;	0,0
612,8585205078125;	600,0;	0,0;	0,0
612,9119262695312;	572,0;	0,0;	0,0
612,9652709960938;	576,0;	0,0;	0,0
613,0185546875;	602,25;	0,0;	0,0
613,0718383789062;	569,75;	0,0;	0,0
613,1251220703125;	580,0;	0,0;	0,0
613,1784057617188;	572,0;	0,0;	0,0
613,2317504882812;	560,0;	0,0;	0,0
613,2849731445312;	574,5;	0,0;	0,0
613,338134765625;	656,75;	0,0;	0,0
613,391357421875;	644,0;	0,0;	0,0
613,4445190429688;	727,5;	0,0;	0,0
613,4977416992188;	923,0;	0,0;	0,0
613,5509033203125;	892,25;	0,0;	0,0
613,6040649414062;	948,25;	0,0;	0,0
613,6572265625;	762,0;	0,0;	0,0
613,7102661132812;	700,25;	0,0;	0,0
613,7633666992188;	591,0;	0,0;	0,0
613,8164672851562;	584,0;	0,0;	0,0
613,8695068359375;	600,5;	0,0;	0,0
613,922607421875;	610,0;	0,0;	0,0
613,9755859375;	617,0;	0,0;	0,0
614,028564453125;	726,5;	0,0;	0,0
614,0816040039062;	645,0;	0,0;	0,0
614,1346435546875;	608,25;	0,0;	0,0
614,1875610351562;	589,5;	0,0;	0,0
614,2405395507812;	573,0;	0,0;	0,0
614,2933959960938;	606,75;	0,0;	0,0
614,3463745117188;	571,5;	0,0;	0,0
614,3992919921875;	606,0;	0,0;	0,0
614,4521484375;	605,25;	0,0;	0,0
614,5050048828125;	547,0;	0,0;	0,0
614,5578002929688;	589,75;	0,0;	0,0
614,6106567382812;	649,75;	0,0;	0,0
614,6635131835938;	641,0;	0,0;	0,0
614,7163696289062;	601,5;	0,0;	0,0
614,7691040039062;	573,0;	0,0;	0,0
614,8218994140625;	585,75;	0,0;	0,0
614,8746337890625;	599,75;	0,0;	0,0
614,9273681640625;	594,5;	0,0;	0,0
614,9801025390625;	613,75;	0,0;	0,0
615,0327758789062;	622,0;	0,0;	0,0
615,0855102539062;	643,75;	0,0;	0,0
615,1381225585938;	612,75;	0,0;	0,0
615,1908569335938;	641,75;	0,0;	0,0
615,2434692382812;	666,75;	0,0;	0,0
615,2960815429688;	655,5;	0,0;	0,0
615,3486938476562;	675,75;	0,0;	0,0
615,4012451171875;	697,75;	0,0;	0,0
615,453857421875;	624,25;	0,0;	0,0
615,5064697265625;	642,75;	0,0;	0,0
615,5589599609375;	659,75;	0,0;	0,0
615,6114501953125;	702,25;	0,0;	0,0
615,6640014648438;	695,25;	0,0;	0,0
615,7164306640625;	708,0;	0,0;	0,0
615,7689819335938;	751,25;	0,0;	0,0
615,8214111328125;	738,75;	0,0;	0,0
615,8738403320312;	896,5;	0,0;	0,0
615,9263305664062;	1155,0;	0,0;	0,0
615,9786987304688;	1500,0;	0,0;	0,0
616,0310668945312;	2166,5;	0,0;	0,0
616,08349609375;	2511,25;	0,0;	0,0
616,1358642578125;	1828,75;	0,0;	0,0
616,1881713867188;	1106,0;	0,0;	0,0
616,2405395507812;	820,5;	0,0;	0,0
616,2928466796875;	750,75;	0,0;	0,0
616,3450927734375;	709,0;	0,0;	0,0
616,3974609375;	719,75;	0,0;	0,0
616,4496459960938;	712,5;	0,0;	0,0
616,501953125;	730,75;	0,0;	0,0
616,5540771484375;	725,75;	0,0;	0,0
616,6063842773438;	719,0;	0,0;	0,0
616,6585693359375;	758,75;	0,0;	0,0
616,7107543945312;	843,75;	0,0;	0,0
616,7628784179688;	936,75;	0,0;	0,0
616,8150634765625;	995,25;	0,0;	0,0
616,8671264648438;	911,0;	0,0;	0,0
616,9193115234375;	827,75;	0,0;	0,0
616,971435546875;	754,25;	0,0;	0,0
617,0234985351562;	679,25;	0,0;	0,0
617,0756225585938;	722,5;	0,0;	0,0
617,1275634765625;	741,0;	0,0;	0,0
617,1796875;	708,75;	0,0;	0,0
617,231689453125;	733,5;	0,0;	0,0
617,28369140625;	643,0;	0,0;	0,0
617,3356323242188;	655,25;	0,0;	0,0
617,3876953125;	684,0;	0,0;	0,0
617,4395751953125;	677,75;	0,0;	0,0
617,4915161132812;	693,75;	0,0;	0,0
617,54345703125;	696,5;	0,0;	0,0
617,5953369140625;	707,5;	0,0;	0,0
617,6472778320312;	674,0;	0,0;	0,0
617,6990966796875;	704,75;	0,0;	0,0
617,7509765625;	722,25;	0,0;	0,0
617,8027954101562;	718,75;	0,0;	0,0
617,8546142578125;	715,75;	0,0;	0,0
617,906494140625;	737,0;	0,0;	0,0
617,9581909179688;	718,25;	0,0;	0,0
618,010009765625;	693,0;	0,0;	0,0
618,061767578125;	696,75;	0,0;	0,0
618,113525390625;	672,75;	0,0;	0,0
618,1652221679688;	743,5;	0,0;	0,0
618,2169799804688;	737,5;	0,0;	0,0
618,2686157226562;	686,5;	0,0;	0,0
618,3203125;	679,25;	0,0;	0,0
618,3720092773438;	647,75;	0,0;	0,0
618,423583984375;	652,75;	0,0;	0,0
618,4752197265625;	659,25;	0,0;	0,0
618,5267944335938;	666,25;	0,0;	0,0
618,5784301757812;	620,0;	0,0;	0,0
618,6300048828125;	699,25;	0,0;	0,0
618,681640625;	670,25;	0,0;	0,0
618,7330932617188;	667,5;	0,0;	0,0
618,7846069335938;	657,0;	0,0;	0,0
618,8361206054688;	718,5;	0,0;	0,0
618,8876342773438;	758,0;	0,0;	0,0
618,9391479492188;	841,0;	0,0;	0,0
618,9905395507812;	900,75;	0,0;	0,0
619,0419921875;	872,5;	0,0;	0,0
619,0933837890625;	772,25;	0,0;	0,0
619,1448364257812;	664,0;	0,0;	0,0
619,1962890625;	665,0;	0,0;	0,0
619,2476196289062;	690,25;	0,0;	0,0
619,2990112304688;	667,25;	0,0;	0,0
619,3504028320312;	651,5;	0,0;	0,0
619,4016723632812;	648,5;	0,0;	0,0
619,4530029296875;	631,0;	0,0;	0,0
619,5043334960938;	681,5;	0,0;	0,0
619,5555419921875;	685,5;	0,0;	0,0
619,6068115234375;	659,75;	0,0;	0,0
619,6580810546875;	638,25;	0,0;	0,0
619,7092895507812;	634,0;	0,0;	0,0
619,7605590820312;	677,75;	0,0;	0,0
619,8117065429688;	695,75;	0,0;	0,0
619,8628540039062;	644,25;	0,0;	0,0
619,9140014648438;	714,5;	0,0;	0,0
619,9652099609375;	705,0;	0,0;	0,0
620,0162963867188;	638,25;	0,0;	0,0
620,0675048828125;	675,75;	0,0;	0,0
620,1185913085938;	646,5;	0,0;	0,0
620,169677734375;	710,25;	0,0;	0,0
620,2206420898438;	719,5;	0,0;	0,0
620,2717895507812;	706,0;	0,0;	0,0
620,3228149414062;	701,25;	0,0;	0,0
620,373779296875;	669,75;	0,0;	0,0
620,4248046875;	692,5;	0,0;	0,0
620,4757690429688;	727,25;	0,0;	0,0
620,5267333984375;	682,0;	0,0;	0,0
620,5777587890625;	723,5;	0,0;	0,0
620,628662109375;	662,75;	0,0;	0,0
620,6795654296875;	717,75;	0,0;	0,0
620,73046875;	723,0;	0,0;	0,0
620,7813110351562;	684,0;	0,0;	0,0
620,8322143554688;	654,25;	0,0;	0,0
620,883056640625;	671,75;	0,0;	0,0
620,933837890625;	661,25;	0,0;	0,0
620,9846801757812;	644,5;	0,0;	0,0
621,0354614257812;	684,5;	0,0;	0,0
621,0863037109375;	649,0;	0,0;	0,0
621,1370849609375;	646,75;	0,0;	0,0
621,1878662109375;	647,5;	0,0;	0,0
621,2385864257812;	629,25;	0,0;	0,0
621,2892456054688;	651,75;	0,0;	0,0
621,3399047851562;	662,5;	0,0;	0,0
621,3906860351562;	652,25;	0,0;	0,0
621,4413452148438;	640,75;	0,0;	0,0
621,491943359375;	664,5;	0,0;	0,0
621,5426025390625;	616,25;	0,0;	0,0
621,5931396484375;	617,75;	0,0;	0,0
621,643798828125;	679,0;	0,0;	0,0
621,6943969726562;	683,75;	0,0;	0,0
621,7449951171875;	729,25;	0,0;	0,0
621,7955322265625;	725,0;	0,0;	0,0
621,8460693359375;	646,25;	0,0;	0,0
621,8965454101562;	671,0;	0,0;	0,0
621,9470825195312;	659,25;	0,0;	0,0
621,9976196289062;	659,0;	0,0;	0,0
622,0480346679688;	640,5;	0,0;	0,0
622,0985107421875;	656,0;	0,0;	0,0
622,1488647460938;	713,5;	0,0;	0,0
622,1993408203125;	664,5;	0,0;	0,0
622,249755859375;	643,5;	0,0;	0,0
622,3001708984375;	609,75;	0,0;	0,0
622,3505249023438;	666,5;	0,0;	0,0
622,4008178710938;	683,75;	0,0;	0,0
622,451171875;	641,75;	0,0;	0,0
622,5015258789062;	621,75;	0,0;	0,0
622,5518798828125;	664,75;	0,0;	0,0
622,6021118164062;	641,75;	0,0;	0,0
622,6524047851562;	647,75;	0,0;	0,0
622,7025756835938;	660,75;	0,0;	0,0
622,7528686523438;	710,25;	0,0;	0,0
622,8031616210938;	729,25;	0,0;	0,0
622,853271484375;	789,25;	0,0;	0,0
622,9034423828125;	925,75;	0,0;	0,0
622,95361328125;	974,25;	0,0;	0,0
623,0037841796875;	774,5;	0,0;	0,0
623,053955078125;	715,5;	0,0;	0,0
623,1040649414062;	716,5;	0,0;	0,0
623,1541137695312;	717,25;	0,0;	0,0
623,2042236328125;	653,5;	0,0;	0,0
623,2542724609375;	660,25;	0,0;	0,0
623,3043823242188;	686,75;	0,0;	0,0
623,3544311523438;	657,25;	0,0;	0,0
623,4044189453125;	633,5;	0,0;	0,0
623,4544677734375;	668,75;	0,0;	0,0
623,50439453125;	602,5;	0,0;	0,0
623,5543823242188;	608,75;	0,0;	0,0
623,6043701171875;	664,5;	0,0;	0,0
623,6543579101562;	638,75;	0,0;	0,0
623,7042236328125;	634,75;	0,0;	0,0
623,754150390625;	643,75;	0,0;	0,0
623,803955078125;	655,75;	0,0;	0,0
623,8538818359375;	658,25;	0,0;	0,0
623,9037475585938;	613,25;	0,0;	0,0
623,9535522460938;	632,25;	0,0;	0,0
624,0033569335938;	602,25;	0,0;	0,0
624,0531616210938;	641,75;	0,0;	0,0
624,1029663085938;	633,0;	0,0;	0,0
624,1527709960938;	599,5;	0,0;	0,0
624,2025756835938;	624,0;	0,0;	0,0
624,2522583007812;	629,0;	0,0;	0,0
624,3019409179688;	647,75;	0,0;	0,0
624,3516235351562;	674,0;	0,0;	0,0
624,4013671875;	663,25;	0,0;	0,0
624,4510498046875;	745,0;	0,0;	0,0
624,5006713867188;	740,0;	0,0;	0,0
624,5503540039062;	729,75;	0,0;	0,0
624,599853515625;	668,0;	0,0;	0,0
624,6495361328125;	627,5;	0,0;	0,0
624,6991577148438;	620,5;	0,0;	0,0
624,7486572265625;	589,5;	0,0;	0,0
624,7982177734375;	629,75;	0,0;	0,0
624,8477172851562;	616,5;	0,0;	0,0
624,8972778320312;	581,75;	0,0;	0,0
624,94677734375;	616,25;	0,0;	0,0
624,9962768554688;	670,25;	0,0;	0,0
625,0457763671875;	682,25;	0,0;	0,0
625,09521484375;	746,75;	0,0;	0,0
625,1446533203125;	763,25;	0,0;	0,0
625,194091796875;	645,5;	0,0;	0,0
625,2434692382812;	688,0;	0,0;	0,0
625,2928466796875;	638,0;	0,0;	0,0
625,3422241210938;	648,75;	0,0;	0,0
625,3914794921875;	628,5;	0,0;	0,0
625,44091796875;	629,75;	0,0;	0,0
625,490234375;	607,5;	0,0;	0,0
625,53955078125;	614,0;	0,0;	0,0
625,5888061523438;	611,75;	0,0;	0,0
625,6380615234375;	596,25;	0,0;	0,0
625,687255859375;	609,75;	0,0;	0,0
625,736572265625;	584,25;	0,0;	0,0
625,7858276367188;	0,0;	0,0;	0,0
