-0.5	1.0
Integration time [ms]:	1.05
Averaging Nr. [scans]:1
Smoothing Nr. [pixels]:0
Data measured with spectrometer [name]:b'1703279U8'
Wave	;Sample	;Dark	;Reference	;Scope	
[nm]	;[counts]	;[counts]	;[counts]	
 
725,3621826171875;	372,75;	0,0;	0,0
725,4813842773438;	312,0;	0,0;	0,0
725,6005249023438;	338,75;	0,0;	0,0
725,7197265625;	333,25;	0,0;	0,0
725,8388671875;	343,75;	0,0;	0,0
725,9579467773438;	340,75;	0,0;	0,0
726,0770874023438;	371,5;	0,0;	0,0
726,1961669921875;	330,75;	0,0;	0,0
726,315185546875;	351,5;	0,0;	0,0
726,4342651367188;	333,75;	0,0;	0,0
726,5532836914062;	349,25;	0,0;	0,0
726,6723022460938;	336,25;	0,0;	0,0
726,7913208007812;	327,75;	0,0;	0,0
726,9102783203125;	349,25;	0,0;	0,0
727,0292358398438;	369,25;	0,0;	0,0
727,148193359375;	352,0;	0,0;	0,0
727,26708984375;	341,5;	0,0;	0,0
727,385986328125;	337,25;	0,0;	0,0
727,5048828125;	378,5;	0,0;	0,0
727,6237182617188;	346,5;	0,0;	0,0
727,7426147460938;	360,5;	0,0;	0,0
727,8614501953125;	349,25;	0,0;	0,0
727,9801635742188;	380,5;	0,0;	0,0
728,0989379882812;	369,25;	0,0;	0,0
728,2177124023438;	363,75;	0,0;	0,0
728,3364868164062;	360,25;	0,0;	0,0
728,4552612304688;	378,0;	0,0;	0,0
728,573974609375;	343,75;	0,0;	0,0
728,6926879882812;	338,0;	0,0;	0,0
728,8113403320312;	368,75;	0,0;	0,0
728,9299926757812;	331,5;	0,0;	0,0
729,0486450195312;	355,5;	0,0;	0,0
729,1672973632812;	406,25;	0,0;	0,0
729,285888671875;	370,0;	0,0;	0,0
729,4044799804688;	357,75;	0,0;	0,0
729,5230712890625;	382,75;	0,0;	0,0
729,6416625976562;	339,75;	0,0;	0,0
729,7601928710938;	387,0;	0,0;	0,0
729,8787231445312;	353,0;	0,0;	0,0
729,9971313476562;	340,75;	0,0;	0,0
730,1156005859375;	352,25;	0,0;	0,0
730,2340698242188;	347,75;	0,0;	0,0
730,3525390625;	355,0;	0,0;	0,0
730,470947265625;	342,0;	0,0;	0,0
730,58935546875;	356,75;	0,0;	0,0
730,707763671875;	371,0;	0,0;	0,0
730,826171875;	384,25;	0,0;	0,0
730,9445190429688;	372,0;	0,0;	0,0
731,0628662109375;	372,5;	0,0;	0,0
731,18115234375;	370,75;	0,0;	0,0
731,2994995117188;	352,5;	0,0;	0,0
731,4177856445312;	352,0;	0,0;	0,0
731,5360107421875;	383,5;	0,0;	0,0
731,654296875;	356,25;	0,0;	0,0
731,7725219726562;	368,25;	0,0;	0,0
731,8906860351562;	382,25;	0,0;	0,0
732,0088500976562;	384,5;	0,0;	0,0
732,1270141601562;	382,25;	0,0;	0,0
732,2451782226562;	346,0;	0,0;	0,0
732,3633422851562;	375,0;	0,0;	0,0
732,4814453125;	426,0;	0,0;	0,0
732,5995483398438;	406,75;	0,0;	0,0
732,7176513671875;	325,5;	0,0;	0,0
732,8357543945312;	350,0;	0,0;	0,0
732,9537963867188;	345,0;	0,0;	0,0
733,07177734375;	375,5;	0,0;	0,0
733,189697265625;	390,75;	0,0;	0,0
733,3076782226562;	367,75;	0,0;	0,0
733,4256591796875;	364,5;	0,0;	0,0
733,5436401367188;	374,0;	0,0;	0,0
733,6615600585938;	381,25;	0,0;	0,0
733,7794799804688;	335,25;	0,0;	0,0
733,8973999023438;	361,25;	0,0;	0,0
734,0152587890625;	379,25;	0,0;	0,0
734,1331176757812;	346,5;	0,0;	0,0
734,2509765625;	387,0;	0,0;	0,0
734,3687744140625;	380,5;	0,0;	0,0
734,486572265625;	353,0;	0,0;	0,0
734,6043701171875;	373,0;	0,0;	0,0
734,72216796875;	376,75;	0,0;	0,0
734,8399047851562;	340,5;	0,0;	0,0
734,9576416015625;	405,25;	0,0;	0,0
735,0753173828125;	361,5;	0,0;	0,0
735,1930541992188;	385,0;	0,0;	0,0
735,3107299804688;	370,25;	0,0;	0,0
735,4283447265625;	362,75;	0,0;	0,0
735,5460205078125;	346,0;	0,0;	0,0
735,6636352539062;	375,75;	0,0;	0,0
735,78125;	353,0;	0,0;	0,0
735,8988647460938;	388,0;	0,0;	0,0
736,016357421875;	349,75;	0,0;	0,0
736,1339111328125;	376,0;	0,0;	0,0
736,25146484375;	386,25;	0,0;	0,0
736,3690185546875;	374,0;	0,0;	0,0
736,4864501953125;	389,5;	0,0;	0,0
736,6039428710938;	378,75;	0,0;	0,0
736,7213745117188;	355,0;	0,0;	0,0
736,8388671875;	356,5;	0,0;	0,0
736,9562377929688;	349,0;	0,0;	0,0
737,0736083984375;	375,25;	0,0;	0,0
737,1910400390625;	366,75;	0,0;	0,0
737,3084106445312;	384,5;	0,0;	0,0
737,4257202148438;	399,25;	0,0;	0,0
737,5430297851562;	369,5;	0,0;	0,0
737,660400390625;	371,5;	0,0;	0,0
737,7776489257812;	400,25;	0,0;	0,0
737,8948974609375;	364,75;	0,0;	0,0
738,01220703125;	362,5;	0,0;	0,0
738,1294555664062;	393,75;	0,0;	0,0
738,24658203125;	382,25;	0,0;	0,0
738,36376953125;	418,0;	0,0;	0,0
738,48095703125;	380,75;	0,0;	0,0
738,5980834960938;	404,75;	0,0;	0,0
738,7152709960938;	387,75;	0,0;	0,0
738,8323974609375;	421,5;	0,0;	0,0
738,949462890625;	416,0;	0,0;	0,0
739,0665893554688;	406,25;	0,0;	0,0
739,18359375;	365,25;	0,0;	0,0
739,3006591796875;	366,75;	0,0;	0,0
739,417724609375;	371,75;	0,0;	0,0
739,53466796875;	377,0;	0,0;	0,0
739,6517333984375;	397,5;	0,0;	0,0
739,7686767578125;	383,5;	0,0;	0,0
739,8856201171875;	366,25;	0,0;	0,0
740,0025634765625;	366,75;	0,0;	0,0
740,1195068359375;	356,5;	0,0;	0,0
740,2363891601562;	377,75;	0,0;	0,0
740,353271484375;	365,75;	0,0;	0,0
740,4701538085938;	383,5;	0,0;	0,0
740,5869750976562;	380,75;	0,0;	0,0
740,7037963867188;	385,5;	0,0;	0,0
740,8206176757812;	390,25;	0,0;	0,0
740,9373779296875;	416,25;	0,0;	0,0
741,05419921875;	458,75;	0,0;	0,0
741,1708984375;	378,25;	0,0;	0,0
741,2876586914062;	402,0;	0,0;	0,0
741,4043579101562;	382,5;	0,0;	0,0
741,5211181640625;	376,0;	0,0;	0,0
741,6377563476562;	394,25;	0,0;	0,0
741,7544555664062;	404,0;	0,0;	0,0
741,8710327148438;	417,0;	0,0;	0,0
741,9876098632812;	457,25;	0,0;	0,0
742,104248046875;	522,5;	0,0;	0,0
742,2208251953125;	788,5;	0,0;	0,0
742,33740234375;	1013,5;	0,0;	0,0
742,4539794921875;	657,5;	0,0;	0,0
742,5704956054688;	447,5;	0,0;	0,0
742,68701171875;	433,75;	0,0;	0,0
742,8035278320312;	398,25;	0,0;	0,0
742,9199829101562;	375,75;	0,0;	0,0
743,036376953125;	416,75;	0,0;	0,0
743,1528930664062;	388,75;	0,0;	0,0
743,2692260742188;	402,25;	0,0;	0,0
743,3856201171875;	404,0;	0,0;	0,0
743,5020141601562;	443,25;	0,0;	0,0
743,6183471679688;	425,25;	0,0;	0,0
743,7346801757812;	447,75;	0,0;	0,0
743,8510131835938;	492,5;	0,0;	0,0
743,9673461914062;	636,5;	0,0;	0,0
744,0835571289062;	1116,5;	0,0;	0,0
744,1998901367188;	1619,5;	0,0;	0,0
744,3161010742188;	1090,25;	0,0;	0,0
744,4323120117188;	705,75;	0,0;	0,0
744,548583984375;	573,75;	0,0;	0,0
744,664794921875;	459,25;	0,0;	0,0
744,7809448242188;	394,25;	0,0;	0,0
744,8970947265625;	401,0;	0,0;	0,0
745,0132446289062;	395,75;	0,0;	0,0
745,1293334960938;	375,75;	0,0;	0,0
745,2454223632812;	381,5;	0,0;	0,0
745,3615112304688;	378,0;	0,0;	0,0
745,4776000976562;	353,5;	0,0;	0,0
745,5936279296875;	383,75;	0,0;	0,0
745,7096557617188;	380,25;	0,0;	0,0
745,82568359375;	420,25;	0,0;	0,0
745,941650390625;	390,0;	0,0;	0,0
746,0576171875;	401,25;	0,0;	0,0
746,173583984375;	448,75;	0,0;	0,0
746,28955078125;	453,0;	0,0;	0,0
746,4054565429688;	497,0;	0,0;	0,0
746,5213012695312;	620,0;	0,0;	0,0
746,63720703125;	1152,5;	0,0;	0,0
746,7530517578125;	2270,75;	0,0;	0,0
746,868896484375;	1828,0;	0,0;	0,0
746,9846801757812;	848,5;	0,0;	0,0
747,1004638671875;	537,5;	0,0;	0,0
747,2162475585938;	467,75;	0,0;	0,0
747,3320922851562;	446,25;	0,0;	0,0
747,4478149414062;	430,0;	0,0;	0,0
747,5635375976562;	420,25;	0,0;	0,0
747,6792602539062;	450,25;	0,0;	0,0
747,794921875;	462,25;	0,0;	0,0
747,9105834960938;	407,0;	0,0;	0,0
748,0262451171875;	391,5;	0,0;	0,0
748,1419067382812;	394,5;	0,0;	0,0
748,2574462890625;	392,5;	0,0;	0,0
748,373046875;	410,0;	0,0;	0,0
748,488525390625;	389,0;	0,0;	0,0
748,6041259765625;	360,75;	0,0;	0,0
748,7196655273438;	392,25;	0,0;	0,0
748,835205078125;	371,75;	0,0;	0,0
748,95068359375;	383,5;	0,0;	0,0
749,066162109375;	421,0;	0,0;	0,0
749,181640625;	381,25;	0,0;	0,0
749,297119140625;	416,0;	0,0;	0,0
749,4125366210938;	570,75;	0,0;	0,0
749,5278930664062;	462,75;	0,0;	0,0
749,6432495117188;	380,5;	0,0;	0,0
749,7586669921875;	352,0;	0,0;	0,0
749,8740234375;	365,0;	0,0;	0,0
749,9893798828125;	374,25;	0,0;	0,0
750,1046752929688;	386,25;	0,0;	0,0
750,2199096679688;	402,75;	0,0;	0,0
750,335205078125;	376,5;	0,0;	0,0
750,4505004882812;	394,5;	0,0;	0,0
750,5657348632812;	365,0;	0,0;	0,0
750,680908203125;	345,0;	0,0;	0,0
750,796142578125;	391,25;	0,0;	0,0
750,9113159179688;	503,25;	0,0;	0,0
751,0264282226562;	681,25;	0,0;	0,0
751,1416015625;	456,5;	0,0;	0,0
751,2567749023438;	363,5;	0,0;	0,0
751,371826171875;	390,0;	0,0;	0,0
751,4869384765625;	376,5;	0,0;	0,0
751,6019897460938;	357,5;	0,0;	0,0
751,717041015625;	340,25;	0,0;	0,0
751,8320922851562;	375,25;	0,0;	0,0
751,9470825195312;	370,0;	0,0;	0,0
752,0620727539062;	383,25;	0,0;	0,0
752,1770629882812;	337,25;	0,0;	0,0
752,2919921875;	364,0;	0,0;	0,0
752,4069213867188;	339,0;	0,0;	0,0
752,5218505859375;	375,0;	0,0;	0,0
752,63671875;	337,5;	0,0;	0,0
752,7515869140625;	374,0;	0,0;	0,0
752,866455078125;	364,0;	0,0;	0,0
752,9813232421875;	389,0;	0,0;	0,0
753,0961303710938;	409,0;	0,0;	0,0
753,2108764648438;	364,25;	0,0;	0,0
753,32568359375;	376,0;	0,0;	0,0
753,4404296875;	349,5;	0,0;	0,0
753,55517578125;	349,5;	0,0;	0,0
753,669921875;	389,0;	0,0;	0,0
753,7846069335938;	366,0;	0,0;	0,0
753,8992919921875;	367,5;	0,0;	0,0
754,0139770507812;	362,75;	0,0;	0,0
754,128662109375;	334,75;	0,0;	0,0
754,2432250976562;	373,5;	0,0;	0,0
754,3578491210938;	364,0;	0,0;	0,0
754,4724731445312;	381,25;	0,0;	0,0
754,5870361328125;	373,75;	0,0;	0,0
754,7015991210938;	384,75;	0,0;	0,0
754,8161010742188;	363,75;	0,0;	0,0
754,9306640625;	351,5;	0,0;	0,0
755,045166015625;	370,5;	0,0;	0,0
755,1596069335938;	367,25;	0,0;	0,0
755,2740478515625;	380,75;	0,0;	0,0
755,3885498046875;	373,75;	0,0;	0,0
755,5029907226562;	349,25;	0,0;	0,0
755,6173706054688;	325,75;	0,0;	0,0
755,7317504882812;	388,5;	0,0;	0,0
755,8460693359375;	366,75;	0,0;	0,0
755,96044921875;	368,25;	0,0;	0,0
756,0748291015625;	342,0;	0,0;	0,0
756,1890869140625;	369,75;	0,0;	0,0
756,3034057617188;	351,25;	0,0;	0,0
756,4176635742188;	356,75;	0,0;	0,0
756,5319213867188;	373,0;	0,0;	0,0
756,6461181640625;	349,0;	0,0;	0,0
756,7603759765625;	375,75;	0,0;	0,0
756,8745727539062;	394,0;	0,0;	0,0
756,9887084960938;	368,25;	0,0;	0,0
757,1029052734375;	352,5;	0,0;	0,0
757,217041015625;	353,0;	0,0;	0,0
757,3311157226562;	345,25;	0,0;	0,0
757,4452514648438;	344,5;	0,0;	0,0
757,559326171875;	338,5;	0,0;	0,0
757,6734008789062;	350,25;	0,0;	0,0
757,7874145507812;	359,5;	0,0;	0,0
757,9013671875;	361,5;	0,0;	0,0
758,0154418945312;	356,75;	0,0;	0,0
758,1293334960938;	378,75;	0,0;	0,0
758,2433471679688;	379,5;	0,0;	0,0
758,3572998046875;	416,25;	0,0;	0,0
758,4712524414062;	407,25;	0,0;	0,0
758,5850830078125;	421,25;	0,0;	0,0
758,698974609375;	372,75;	0,0;	0,0
758,8128662109375;	377,75;	0,0;	0,0
758,9267578125;	362,0;	0,0;	0,0
759,04052734375;	344,0;	0,0;	0,0
759,1543579101562;	370,5;	0,0;	0,0
759,2681884765625;	353,75;	0,0;	0,0
759,3819580078125;	373,75;	0,0;	0,0
759,4956665039062;	368,5;	0,0;	0,0
759,6094360351562;	379,5;	0,0;	0,0
759,72314453125;	344,75;	0,0;	0,0
759,8368530273438;	337,75;	0,0;	0,0
759,9505615234375;	351,75;	0,0;	0,0
760,064208984375;	347,25;	0,0;	0,0
760,1778564453125;	367,75;	0,0;	0,0
760,2914428710938;	332,75;	0,0;	0,0
760,4050903320312;	351,75;	0,0;	0,0
760,5186157226562;	365,25;	0,0;	0,0
760,6322021484375;	356,5;	0,0;	0,0
760,7457275390625;	361,75;	0,0;	0,0
760,8593139648438;	348,25;	0,0;	0,0
760,9727783203125;	340,25;	0,0;	0,0
761,0863037109375;	392,0;	0,0;	0,0
761,1997680664062;	351,25;	0,0;	0,0
761,313232421875;	375,25;	0,0;	0,0
761,4266357421875;	357,5;	0,0;	0,0
761,5400390625;	350,0;	0,0;	0,0
761,6534423828125;	377,5;	0,0;	0,0
761,766845703125;	381,0;	0,0;	0,0
761,880126953125;	379,0;	0,0;	0,0
761,9935302734375;	402,75;	0,0;	0,0
762,1068115234375;	354,5;	0,0;	0,0
762,2200927734375;	356,75;	0,0;	0,0
762,3333740234375;	387,5;	0,0;	0,0
762,4466552734375;	387,5;	0,0;	0,0
762,5598754882812;	395,25;	0,0;	0,0
762,673095703125;	381,75;	0,0;	0,0
762,7863159179688;	395,75;	0,0;	0,0
762,8994750976562;	411,25;	0,0;	0,0
763,0126342773438;	356,25;	0,0;	0,0
763,1257934570312;	367,5;	0,0;	0,0
763,2388916015625;	399,75;	0,0;	0,0
763,3519897460938;	405,75;	0,0;	0,0
763,465087890625;	417,0;	0,0;	0,0
763,578125;	443,0;	0,0;	0,0
763,691162109375;	406,75;	0,0;	0,0
763,80419921875;	409,75;	0,0;	0,0
763,917236328125;	425,25;	0,0;	0,0
764,0302124023438;	419,5;	0,0;	0,0
764,1431884765625;	426,0;	0,0;	0,0
764,256103515625;	438,25;	0,0;	0,0
764,3690795898438;	481,75;	0,0;	0,0
764,4819946289062;	475,5;	0,0;	0,0
764,5948486328125;	445,25;	0,0;	0,0
764,707763671875;	479,0;	0,0;	0,0
764,820556640625;	529,5;	0,0;	0,0
764,9334106445312;	502,75;	0,0;	0,0
765,0462646484375;	556,25;	0,0;	0,0
765,1590576171875;	565,5;	0,0;	0,0
765,2718505859375;	700,5;	0,0;	0,0
765,384521484375;	727,75;	0,0;	0,0
765,497314453125;	803,25;	0,0;	0,0
765,6100463867188;	962,5;	0,0;	0,0
765,7227783203125;	1216,25;	0,0;	0,0
765,8353881835938;	1659,25;	0,0;	0,0
765,9480590820312;	2350,25;	0,0;	0,0
766,0607299804688;	3728,0;	0,0;	0,0
766,17333984375;	6889,75;	0,0;	0,0
766,2859497070312;	13796,0;	0,0;	0,0
766,3984985351562;	16383,75;	0,0;	0,0
766,5111083984375;	13804,5;	0,0;	0,0
766,6236572265625;	6351,0;	0,0;	0,0
766,7361450195312;	3517,75;	0,0;	0,0
766,8486938476562;	2281,5;	0,0;	0,0
766,961181640625;	1585,25;	0,0;	0,0
767,0736694335938;	1314,75;	0,0;	0,0
767,1860961914062;	988,0;	0,0;	0,0
767,2984619140625;	911,75;	0,0;	0,0
767,4109497070312;	763,25;	0,0;	0,0
767,5233154296875;	650,5;	0,0;	0,0
767,6357421875;	658,75;	0,0;	0,0
767,748046875;	647,5;	0,0;	0,0
767,8602905273438;	603,25;	0,0;	0,0
767,97265625;	576,0;	0,0;	0,0
768,0849609375;	560,75;	0,0;	0,0
768,1972045898438;	517,25;	0,0;	0,0
768,3094482421875;	535,75;	0,0;	0,0
768,4216918945312;	541,0;	0,0;	0,0
768,533935546875;	543,5;	0,0;	0,0
768,6461181640625;	539,25;	0,0;	0,0
768,75830078125;	580,5;	0,0;	0,0
768,8704223632812;	635,25;	0,0;	0,0
768,9826049804688;	693,5;	0,0;	0,0
769,0947265625;	776,75;	0,0;	0,0
769,2068481445312;	927,5;	0,0;	0,0
769,3189086914062;	1202,75;	0,0;	0,0
769,4309692382812;	1878,5;	0,0;	0,0
769,5430297851562;	3375,75;	0,0;	0,0
769,655029296875;	7474,25;	0,0;	0,0
769,7670288085938;	15174,25;	0,0;	0,0
769,8790283203125;	13520,25;	0,0;	0,0
769,990966796875;	5250,25;	0,0;	0,0
770,1029663085938;	2409,75;	0,0;	0,0
770,2149047851562;	1447,0;	0,0;	0,0
770,3267822265625;	1074,0;	0,0;	0,0
770,4385986328125;	843,0;	0,0;	0,0
770,5504760742188;	717,5;	0,0;	0,0
770,662353515625;	659,75;	0,0;	0,0
770,7742309570312;	597,0;	0,0;	0,0
770,8860473632812;	564,0;	0,0;	0,0
770,997802734375;	526,0;	0,0;	0,0
771,1095581054688;	501,25;	0,0;	0,0
771,2213134765625;	477,25;	0,0;	0,0
771,3330078125;	451,0;	0,0;	0,0
771,4447631835938;	475,0;	0,0;	0,0
771,5564575195312;	412,5;	0,0;	0,0
771,6680908203125;	429,0;	0,0;	0,0
771,77978515625;	443,5;	0,0;	0,0
771,8914184570312;	407,5;	0,0;	0,0
772,0030517578125;	419,5;	0,0;	0,0
772,1146240234375;	439,25;	0,0;	0,0
772,2261962890625;	392,0;	0,0;	0,0
772,3377685546875;	398,25;	0,0;	0,0
772,4492797851562;	428,75;	0,0;	0,0
772,5608520507812;	420,25;	0,0;	0,0
772,6722412109375;	397,5;	0,0;	0,0
772,78369140625;	383,5;	0,0;	0,0
772,8952026367188;	383,0;	0,0;	0,0
773,0066528320312;	387,25;	0,0;	0,0
773,1181030273438;	373,0;	0,0;	0,0
773,2294921875;	377,75;	0,0;	0,0
773,3408203125;	368,25;	0,0;	0,0
773,4522094726562;	386,0;	0,0;	0,0
773,5635986328125;	374,5;	0,0;	0,0
773,6748657226562;	368,5;	0,0;	0,0
773,7861938476562;	336,75;	0,0;	0,0
773,8974609375;	369,5;	0,0;	0,0
774,0087280273438;	371,0;	0,0;	0,0
774,1199340820312;	345,75;	0,0;	0,0
774,231201171875;	336,25;	0,0;	0,0
774,3424072265625;	345,75;	0,0;	0,0
774,45361328125;	378,25;	0,0;	0,0
774,5647583007812;	354,0;	0,0;	0,0
774,6759033203125;	347,25;	0,0;	0,0
774,7870483398438;	391,0;	0,0;	0,0
774,8981323242188;	360,25;	0,0;	0,0
775,0092163085938;	376,5;	0,0;	0,0
775,1203002929688;	358,0;	0,0;	0,0
775,2313232421875;	376,5;	0,0;	0,0
775,3423461914062;	367,5;	0,0;	0,0
775,453369140625;	351,0;	0,0;	0,0
775,5643920898438;	349,25;	0,0;	0,0
775,6753540039062;	380,0;	0,0;	0,0
775,7863159179688;	361,75;	0,0;	0,0
775,897216796875;	389,75;	0,0;	0,0
776,0081176757812;	375,5;	0,0;	0,0
776,1190185546875;	409,0;	0,0;	0,0
776,2298583984375;	398,0;	0,0;	0,0
776,3407592773438;	401,75;	0,0;	0,0
776,4515991210938;	414,25;	0,0;	0,0
776,5623779296875;	479,75;	0,0;	0,0
776,6732177734375;	493,0;	0,0;	0,0
776,7839965820312;	680,0;	0,0;	0,0
776,8947143554688;	961,25;	0,0;	0,0
777,0054931640625;	1947,5;	0,0;	0,0
777,1161499023438;	3566,25;	0,0;	0,0
777,2269287109375;	2941,5;	0,0;	0,0
777,3375854492188;	3258,5;	0,0;	0,0
777,4481201171875;	2723,0;	0,0;	0,0
777,558837890625;	1451,75;	0,0;	0,0
777,6693725585938;	781,0;	0,0;	0,0
777,7799682617188;	545,75;	0,0;	0,0
777,890625;	510,75;	0,0;	0,0
778,0011596679688;	471,0;	0,0;	0,0
778,1116943359375;	426,25;	0,0;	0,0
778,2222290039062;	393,0;	0,0;	0,0
778,3327026367188;	368,25;	0,0;	0,0
778,4431762695312;	366,25;	0,0;	0,0
778,5536499023438;	337,0;	0,0;	0,0
778,6640625;	357,0;	0,0;	0,0
778,7744750976562;	332,5;	0,0;	0,0
778,8848876953125;	374,5;	0,0;	0,0
778,9953002929688;	333,0;	0,0;	0,0
779,1056518554688;	333,0;	0,0;	0,0
779,2160034179688;	330,5;	0,0;	0,0
779,3263549804688;	342,25;	0,0;	0,0
779,4365844726562;	366,25;	0,0;	0,0
779,546875;	333,5;	0,0;	0,0
779,6571655273438;	377,0;	0,0;	0,0
779,7673950195312;	445,75;	0,0;	0,0
779,8776245117188;	736,5;	0,0;	0,0
779,9878540039062;	977,5;	0,0;	0,0
780,0980224609375;	394,25;	0,0;	0,0
780,2081909179688;	320,0;	0,0;	0,0
780,3182983398438;	318,75;	0,0;	0,0
780,428466796875;	342,75;	0,0;	0,0
780,53857421875;	309,25;	0,0;	0,0
780,6486206054688;	339,0;	0,0;	0,0
780,7587280273438;	352,5;	0,0;	0,0
780,8687744140625;	332,75;	0,0;	0,0
780,978759765625;	317,75;	0,0;	0,0
781,0888061523438;	336,5;	0,0;	0,0
781,1987915039062;	343,0;	0,0;	0,0
781,3087768554688;	329,25;	0,0;	0,0
781,418701171875;	341,75;	0,0;	0,0
781,5286254882812;	323,25;	0,0;	0,0
781,6385498046875;	341,75;	0,0;	0,0
781,7484741210938;	310,5;	0,0;	0,0
781,8583374023438;	319,5;	0,0;	0,0
781,9681396484375;	306,75;	0,0;	0,0
782,0780029296875;	326,5;	0,0;	0,0
782,187744140625;	322,25;	0,0;	0,0
782,2975463867188;	319,75;	0,0;	0,0
782,4072875976562;	299,25;	0,0;	0,0
782,51708984375;	307,25;	0,0;	0,0
782,6267700195312;	332,25;	0,0;	0,0
782,7365112304688;	304,5;	0,0;	0,0
782,84619140625;	329,25;	0,0;	0,0
782,955810546875;	338,5;	0,0;	0,0
783,0654907226562;	336,0;	0,0;	0,0
783,1751098632812;	403,5;	0,0;	0,0
783,2847290039062;	317,25;	0,0;	0,0
783,394287109375;	322,0;	0,0;	0,0
783,50390625;	307,75;	0,0;	0,0
783,6134643554688;	290,0;	0,0;	0,0
783,7229614257812;	296,25;	0,0;	0,0
783,83251953125;	303,5;	0,0;	0,0
783,9420166015625;	325,5;	0,0;	0,0
784,0514526367188;	300,25;	0,0;	0,0
784,1609497070312;	321,5;	0,0;	0,0
784,2703247070312;	317,0;	0,0;	0,0
784,3797607421875;	288,75;	0,0;	0,0
784,4891967773438;	302,75;	0,0;	0,0
784,5985717773438;	314,0;	0,0;	0,0
784,7078857421875;	326,75;	0,0;	0,0
784,8172607421875;	333,0;	0,0;	0,0
784,9265747070312;	306,75;	0,0;	0,0
785,0358276367188;	316,25;	0,0;	0,0
785,1451416015625;	326,0;	0,0;	0,0
785,2543334960938;	314,75;	0,0;	0,0
785,3636474609375;	280,0;	0,0;	0,0
785,4728393554688;	315,25;	0,0;	0,0
785,58203125;	307,0;	0,0;	0,0
785,691162109375;	308,0;	0,0;	0,0
785,80029296875;	321,75;	0,0;	0,0
785,9094848632812;	298,5;	0,0;	0,0
786,0186157226562;	303,5;	0,0;	0,0
786,127685546875;	299,5;	0,0;	0,0
786,23681640625;	304,5;	0,0;	0,0
786,3458251953125;	326,25;	0,0;	0,0
786,454833984375;	304,75;	0,0;	0,0
786,5638427734375;	301,75;	0,0;	0,0
786,6727905273438;	305,25;	0,0;	0,0
786,7817993164062;	297,25;	0,0;	0,0
786,8907470703125;	307,5;	0,0;	0,0
786,999755859375;	298,75;	0,0;	0,0
787,108642578125;	296,75;	0,0;	0,0
787,217529296875;	300,0;	0,0;	0,0
787,326416015625;	306,0;	0,0;	0,0
787,4352416992188;	291,25;	0,0;	0,0
787,5440063476562;	302,75;	0,0;	0,0
787,65283203125;	300,75;	0,0;	0,0
787,7616577148438;	316,5;	0,0;	0,0
787,8704223632812;	293,5;	0,0;	0,0
787,979248046875;	277,0;	0,0;	0,0
788,0879516601562;	303,75;	0,0;	0,0
788,1966552734375;	289,25;	0,0;	0,0
788,3053588867188;	288,25;	0,0;	0,0
788,4140625;	294,25;	0,0;	0,0
788,522705078125;	286,5;	0,0;	0,0
788,63134765625;	304,75;	0,0;	0,0
788,7399291992188;	292,0;	0,0;	0,0
788,8485717773438;	289,5;	0,0;	0,0
788,9571533203125;	296,5;	0,0;	0,0
789,065673828125;	308,75;	0,0;	0,0
789,1741943359375;	318,25;	0,0;	0,0
789,28271484375;	289,5;	0,0;	0,0
789,3912353515625;	306,25;	0,0;	0,0
789,499755859375;	302,25;	0,0;	0,0
789,608154296875;	329,25;	0,0;	0,0
789,7166137695312;	287,0;	0,0;	0,0
789,8250732421875;	312,25;	0,0;	0,0
789,9334106445312;	274,0;	0,0;	0,0
790,0418090820312;	336,0;	0,0;	0,0
790,150146484375;	310,0;	0,0;	0,0
790,2584838867188;	303,5;	0,0;	0,0
790,3667602539062;	303,0;	0,0;	0,0
790,4751586914062;	305,5;	0,0;	0,0
790,5833740234375;	310,0;	0,0;	0,0
790,691650390625;	311,5;	0,0;	0,0
790,7998657226562;	306,25;	0,0;	0,0
790,9081420898438;	312,0;	0,0;	0,0
791,0162963867188;	308,25;	0,0;	0,0
791,1244506835938;	295,5;	0,0;	0,0
791,2326049804688;	304,75;	0,0;	0,0
791,3406982421875;	292,5;	0,0;	0,0
791,4488525390625;	302,0;	0,0;	0,0
791,5569458007812;	310,0;	0,0;	0,0
791,6650390625;	304,75;	0,0;	0,0
791,7730102539062;	318,25;	0,0;	0,0
791,881103515625;	283,75;	0,0;	0,0
791,9890747070312;	289,0;	0,0;	0,0
792,0971069335938;	303,5;	0,0;	0,0
792,205078125;	290,75;	0,0;	0,0
792,31298828125;	296,5;	0,0;	0,0
792,4209594726562;	329,75;	0,0;	0,0
792,5288696289062;	308,5;	0,0;	0,0
792,6367797851562;	309,25;	0,0;	0,0
792,74462890625;	313,75;	0,0;	0,0
792,8524780273438;	288,25;	0,0;	0,0
792,9603271484375;	279,25;	0,0;	0,0
793,068115234375;	289,25;	0,0;	0,0
793,1759033203125;	310,0;	0,0;	0,0
793,2837524414062;	323,75;	0,0;	0,0
793,3914794921875;	329,0;	0,0;	0,0
793,4992065429688;	307,0;	0,0;	0,0
793,60693359375;	406,0;	0,0;	0,0
793,714599609375;	365,0;	0,0;	0,0
793,822265625;	307,25;	0,0;	0,0
793,9299926757812;	295,0;	0,0;	0,0
794,03759765625;	321,5;	0,0;	0,0
794,1452026367188;	324,5;	0,0;	0,0
794,2528076171875;	352,0;	0,0;	0,0
794,3603515625;	353,0;	0,0;	0,0
794,4678955078125;	457,0;	0,0;	0,0
794,575439453125;	555,75;	0,0;	0,0
794,6829833984375;	815,25;	0,0;	0,0
794,7904663085938;	484,5;	0,0;	0,0
794,89794921875;	375,5;	0,0;	0,0
795,00537109375;	484,0;	0,0;	0,0
795,11279296875;	431,75;	0,0;	0,0
795,2202758789062;	382,0;	0,0;	0,0
795,3275756835938;	338,75;	0,0;	0,0
795,4349975585938;	324,25;	0,0;	0,0
795,5422973632812;	301,5;	0,0;	0,0
795,649658203125;	288,25;	0,0;	0,0
795,7569580078125;	290,5;	0,0;	0,0
795,8642578125;	295,75;	0,0;	0,0
795,9714965820312;	311,0;	0,0;	0,0
796,0787963867188;	309,75;	0,0;	0,0
796,1859741210938;	286,5;	0,0;	0,0
796,293212890625;	306,75;	0,0;	0,0
796,400390625;	295,25;	0,0;	0,0
796,507568359375;	289,0;	0,0;	0,0
796,6146850585938;	280,75;	0,0;	0,0
796,7218017578125;	306,25;	0,0;	0,0
796,8289794921875;	292,25;	0,0;	0,0
796,93603515625;	317,0;	0,0;	0,0
797,0430908203125;	296,5;	0,0;	0,0
797,150146484375;	284,25;	0,0;	0,0
797,2572021484375;	263,5;	0,0;	0,0
797,3641967773438;	287,5;	0,0;	0,0
797,47119140625;	291,5;	0,0;	0,0
797,578125;	270,25;	0,0;	0,0
797,68505859375;	295,0;	0,0;	0,0
797,7919921875;	269,25;	0,0;	0,0
797,89892578125;	292,25;	0,0;	0,0
798,0057983398438;	292,25;	0,0;	0,0
798,1126708984375;	294,0;	0,0;	0,0
798,219482421875;	284,5;	0,0;	0,0
798,3263549804688;	269,5;	0,0;	0,0
798,4331665039062;	311,5;	0,0;	0,0
798,5399169921875;	291,5;	0,0;	0,0
798,646728515625;	271,0;	0,0;	0,0
798,75341796875;	291,25;	0,0;	0,0
798,8601684570312;	307,25;	0,0;	0,0
798,9668579101562;	298,75;	0,0;	0,0
799,0735473632812;	277,75;	0,0;	0,0
799,18017578125;	275,5;	0,0;	0,0
799,2868041992188;	316,0;	0,0;	0,0
799,3934936523438;	306,0;	0,0;	0,0
799,5000610351562;	293,75;	0,0;	0,0
799,6066284179688;	264,25;	0,0;	0,0
799,7131958007812;	327,75;	0,0;	0,0
799,8197631835938;	353,0;	0,0;	0,0
799,9263305664062;	314,0;	0,0;	0,0
800,0327758789062;	264,25;	0,0;	0,0
800,1392822265625;	295,0;	0,0;	0,0
800,2457275390625;	303,75;	0,0;	0,0
800,3521728515625;	283,5;	0,0;	0,0
800,4586181640625;	257,5;	0,0;	0,0
800,56494140625;	269,0;	0,0;	0,0
800,67138671875;	271,0;	0,0;	0,0
800,7776489257812;	286,25;	0,0;	0,0
800,884033203125;	285,75;	0,0;	0,0
800,9902954101562;	280,25;	0,0;	0,0
801,0966186523438;	290,0;	0,0;	0,0
801,202880859375;	278,0;	0,0;	0,0
801,3091430664062;	279,0;	0,0;	0,0
801,4154052734375;	302,25;	0,0;	0,0
801,5216064453125;	281,0;	0,0;	0,0
801,6278076171875;	301,0;	0,0;	0,0
801,7339477539062;	268,0;	0,0;	0,0
801,8401489257812;	262,5;	0,0;	0,0
801,9462280273438;	301,5;	0,0;	0,0
802,0523681640625;	287,0;	0,0;	0,0
802,158447265625;	262,0;	0,0;	0,0
802,2645263671875;	252,5;	0,0;	0,0
802,37060546875;	282,25;	0,0;	0,0
802,4766235351562;	281,75;	0,0;	0,0
802,5826416015625;	295,0;	0,0;	0,0
802,6885986328125;	280,0;	0,0;	0,0
802,7945556640625;	310,25;	0,0;	0,0
802,9005737304688;	266,0;	0,0;	0,0
803,0065307617188;	272,25;	0,0;	0,0
803,1124267578125;	288,0;	0,0;	0,0
803,2183227539062;	277,0;	0,0;	0,0
803,3241577148438;	276,5;	0,0;	0,0
803,4299926757812;	290,5;	0,0;	0,0
803,5358276367188;	288,0;	0,0;	0,0
803,6416015625;	261,5;	0,0;	0,0
803,7474365234375;	268,5;	0,0;	0,0
803,8532104492188;	302,75;	0,0;	0,0
803,9589233398438;	289,75;	0,0;	0,0
804,0646362304688;	274,5;	0,0;	0,0
804,17041015625;	286,25;	0,0;	0,0
804,2760009765625;	291,25;	0,0;	0,0
804,3817138671875;	290,75;	0,0;	0,0
804,4873657226562;	316,25;	0,0;	0,0
804,5929565429688;	315,75;	0,0;	0,0
804,6985473632812;	291,5;	0,0;	0,0
804,80419921875;	274,0;	0,0;	0,0
804,9097290039062;	265,25;	0,0;	0,0
805,0153198242188;	253,5;	0,0;	0,0
805,1207275390625;	287,25;	0,0;	0,0
805,226318359375;	292,75;	0,0;	0,0
805,3316650390625;	266,5;	0,0;	0,0
805,437255859375;	267,5;	0,0;	0,0
805,5426635742188;	274,75;	0,0;	0,0
805,6481323242188;	286,0;	0,0;	0,0
805,75341796875;	293,25;	0,0;	0,0
805,8588256835938;	286,75;	0,0;	0,0
805,9641723632812;	303,75;	0,0;	0,0
806,0695190429688;	276,75;	0,0;	0,0
806,1748657226562;	296,0;	0,0;	0,0
806,2801513671875;	264,5;	0,0;	0,0
806,3853759765625;	277,75;	0,0;	0,0
806,4906005859375;	270,25;	0,0;	0,0
806,5958862304688;	264,25;	0,0;	0,0
806,7011108398438;	284,5;	0,0;	0,0
806,8062744140625;	282,75;	0,0;	0,0
806,9114379882812;	292,25;	0,0;	0,0
807,0166625976562;	262,5;	0,0;	0,0
807,1217041015625;	272,5;	0,0;	0,0
807,2268676757812;	265,25;	0,0;	0,0
807,3319091796875;	263,75;	0,0;	0,0
807,43701171875;	282,5;	0,0;	0,0
807,5420532226562;	264,25;	0,0;	0,0
807,6470947265625;	290,75;	0,0;	0,0
807,7521362304688;	269,0;	0,0;	0,0
807,8571166992188;	279,75;	0,0;	0,0
807,9620361328125;	296,25;	0,0;	0,0
808,0669555664062;	271,0;	0,0;	0,0
808,1719360351562;	290,75;	0,0;	0,0
808,27685546875;	293,0;	0,0;	0,0
808,3817138671875;	290,25;	0,0;	0,0
808,486572265625;	315,0;	0,0;	0,0
808,5914306640625;	284,5;	0,0;	0,0
808,6962890625;	266,75;	0,0;	0,0
808,8010864257812;	277,5;	0,0;	0,0
808,9058837890625;	280,0;	0,0;	0,0
809,0105590820312;	279,5;	0,0;	0,0
809,1152954101562;	284,25;	0,0;	0,0
809,2200317382812;	291,75;	0,0;	0,0
809,3247680664062;	262,75;	0,0;	0,0
809,4293823242188;	290,5;	0,0;	0,0
809,5341186523438;	263,75;	0,0;	0,0
809,6386108398438;	261,5;	0,0;	0,0
809,7433471679688;	267,75;	0,0;	0,0
809,847900390625;	255,75;	0,0;	0,0
809,9525146484375;	272,75;	0,0;	0,0
810,0570068359375;	269,25;	0,0;	0,0
810,16162109375;	252,25;	0,0;	0,0
810,2660522460938;	296,25;	0,0;	0,0
810,3705444335938;	261,75;	0,0;	0,0
810,4750366210938;	280,75;	0,0;	0,0
810,5794677734375;	280,5;	0,0;	0,0
810,6838989257812;	281,5;	0,0;	0,0
810,7882690429688;	287,0;	0,0;	0,0
810,8927001953125;	282,25;	0,0;	0,0
810,9970703125;	284,25;	0,0;	0,0
811,1013793945312;	270,25;	0,0;	0,0
811,2057495117188;	283,25;	0,0;	0,0
811,31005859375;	286,5;	0,0;	0,0
811,414306640625;	305,0;	0,0;	0,0
811,5186157226562;	306,0;	0,0;	0,0
811,6228637695312;	290,5;	0,0;	0,0
811,7271118164062;	275,0;	0,0;	0,0
811,8312377929688;	283,75;	0,0;	0,0
811,9354858398438;	259,5;	0,0;	0,0
812,0396118164062;	307,5;	0,0;	0,0
812,1437377929688;	285,75;	0,0;	0,0
812,2478637695312;	266,5;	0,0;	0,0
812,3519897460938;	281,25;	0,0;	0,0
812,4560546875;	299,25;	0,0;	0,0
812,5601196289062;	293,25;	0,0;	0,0
812,6641235351562;	298,25;	0,0;	0,0
812,7681884765625;	280,25;	0,0;	0,0
812,8721313476562;	284,0;	0,0;	0,0
812,9761352539062;	268,5;	0,0;	0,0
813,0801391601562;	283,0;	0,0;	0,0
813,1840209960938;	298,0;	0,0;	0,0
813,2879638671875;	282,0;	0,0;	0,0
813,391845703125;	255,5;	0,0;	0,0
813,4957275390625;	268,75;	0,0;	0,0
813,5995483398438;	271,0;	0,0;	0,0
813,703369140625;	261,5;	0,0;	0,0
813,8071899414062;	273,5;	0,0;	0,0
813,9110107421875;	300,75;	0,0;	0,0
814,0147094726562;	280,75;	0,0;	0,0
814,118408203125;	289,0;	0,0;	0,0
814,2222290039062;	259,75;	0,0;	0,0
814,3258666992188;	300,25;	0,0;	0,0
814,4295654296875;	279,75;	0,0;	0,0
814,533203125;	263,75;	0,0;	0,0
814,6369018554688;	294,0;	0,0;	0,0
814,740478515625;	268,25;	0,0;	0,0
814,8440551757812;	286,0;	0,0;	0,0
814,9476928710938;	277,75;	0,0;	0,0
815,0512084960938;	283,75;	0,0;	0,0
815,15478515625;	277,5;	0,0;	0,0
815,25830078125;	288,0;	0,0;	0,0
815,3617553710938;	292,5;	0,0;	0,0
815,4652099609375;	275,75;	0,0;	0,0
815,5686645507812;	269,25;	0,0;	0,0
815,6721801757812;	288,25;	0,0;	0,0
815,7755737304688;	284,0;	0,0;	0,0
815,8789672851562;	263,75;	0,0;	0,0
815,9823608398438;	303,75;	0,0;	0,0
816,085693359375;	296,5;	0,0;	0,0
816,18896484375;	267,0;	0,0;	0,0
816,2922973632812;	264,5;	0,0;	0,0
816,3955688476562;	297,25;	0,0;	0,0
816,4989013671875;	265,75;	0,0;	0,0
816,6021118164062;	291,25;	0,0;	0,0
816,705322265625;	271,0;	0,0;	0,0
816,8085327148438;	285,75;	0,0;	0,0
816,9117431640625;	274,5;	0,0;	0,0
817,014892578125;	297,25;	0,0;	0,0
817,1180419921875;	294,0;	0,0;	0,0
817,22119140625;	288,0;	0,0;	0,0
817,32421875;	322,25;	0,0;	0,0
817,4273681640625;	298,25;	0,0;	0,0
817,5303955078125;	277,0;	0,0;	0,0
817,6334228515625;	315,5;	0,0;	0,0
817,7365112304688;	328,5;	0,0;	0,0
817,8394775390625;	381,5;	0,0;	0,0
817,9424438476562;	432,0;	0,0;	0,0
818,04541015625;	642,0;	0,0;	0,0
818,1483154296875;	1514,25;	0,0;	0,0
818,251220703125;	2984,25;	0,0;	0,0
818,3541259765625;	1546,25;	0,0;	0,0
818,45703125;	1024,0;	0,0;	0,0
818,5598754882812;	719,5;	0,0;	0,0
818,6627197265625;	811,0;	0,0;	0,0
818,7654418945312;	934,0;	0,0;	0,0
818,8682861328125;	600,0;	0,0;	0,0
818,9710083007812;	485,5;	0,0;	0,0
819,0737915039062;	503,75;	0,0;	0,0
819,1764526367188;	740,0;	0,0;	0,0
819,2791137695312;	1632,5;	0,0;	0,0
819,3818359375;	4165,0;	0,0;	0,0
819,4844970703125;	2418,25;	0,0;	0,0
819,587158203125;	645,75;	0,0;	0,0
819,6897583007812;	411,5;	0,0;	0,0
819,7923583984375;	405,75;	0,0;	0,0
819,8949584960938;	423,0;	0,0;	0,0
819,9974975585938;	451,0;	0,0;	0,0
820,1000366210938;	357,25;	0,0;	0,0
820,2025146484375;	334,25;	0,0;	0,0
820,3050537109375;	317,25;	0,0;	0,0
820,4075317382812;	304,0;	0,0;	0,0
820,5099487304688;	325,5;	0,0;	0,0
820,6123657226562;	331,5;	0,0;	0,0
820,7147827148438;	330,5;	0,0;	0,0
820,8171997070312;	371,0;	0,0;	0,0
820,9196166992188;	468,5;	0,0;	0,0
821,0219116210938;	587,75;	0,0;	0,0
821,1242065429688;	460,25;	0,0;	0,0
821,2265625;	449,25;	0,0;	0,0
821,3287963867188;	550,0;	0,0;	0,0
821,4310913085938;	867,75;	0,0;	0,0
821,5333251953125;	1570,75;	0,0;	0,0
821,6355590820312;	1404,0;	0,0;	0,0
821,7377319335938;	704,5;	0,0;	0,0
821,8399658203125;	519,5;	0,0;	0,0
821,9420776367188;	644,25;	0,0;	0,0
822,044189453125;	567,25;	0,0;	0,0
822,1463623046875;	718,0;	0,0;	0,0
822,2484741210938;	869,25;	0,0;	0,0
822,3505249023438;	641,25;	0,0;	0,0
822,4525756835938;	409,5;	0,0;	0,0
822,5546264648438;	349,5;	0,0;	0,0
822,6566162109375;	325,5;	0,0;	0,0
822,7586059570312;	314,0;	0,0;	0,0
822,860595703125;	348,0;	0,0;	0,0
822,9625244140625;	341,25;	0,0;	0,0
823,064453125;	300,25;	0,0;	0,0
823,166259765625;	324,75;	0,0;	0,0
823,2682495117188;	318,5;	0,0;	0,0
823,3700561523438;	331,5;	0,0;	0,0
823,471923828125;	295,0;	0,0;	0,0
823,57373046875;	299,0;	0,0;	0,0
823,6754760742188;	326,25;	0,0;	0,0
823,7772827148438;	317,25;	0,0;	0,0
823,8790283203125;	320,75;	0,0;	0,0
823,9807739257812;	393,5;	0,0;	0,0
824,08251953125;	623,5;	0,0;	0,0
824,1842041015625;	823,5;	0,0;	0,0
824,285888671875;	563,0;	0,0;	0,0
824,3875122070312;	386,25;	0,0;	0,0
824,4891357421875;	328,75;	0,0;	0,0
824,5908203125;	302,75;	0,0;	0,0
824,6923828125;	286,25;	0,0;	0,0
824,7938842773438;	278,0;	0,0;	0,0
824,8954467773438;	262,0;	0,0;	0,0
824,9969482421875;	275,25;	0,0;	0,0
825,0985107421875;	269,25;	0,0;	0,0
825,2000122070312;	308,0;	0,0;	0,0
825,3014526367188;	262,5;	0,0;	0,0
825,4028930664062;	280,0;	0,0;	0,0
825,5043334960938;	277,0;	0,0;	0,0
825,6056518554688;	259,0;	0,0;	0,0
825,7070922851562;	257,0;	0,0;	0,0
825,8084106445312;	260,25;	0,0;	0,0
825,9097900390625;	281,0;	0,0;	0,0
826,0110473632812;	263,5;	0,0;	0,0
826,1124267578125;	248,0;	0,0;	0,0
826,2136840820312;	276,0;	0,0;	0,0
826,3148803710938;	262,0;	0,0;	0,0
826,4161376953125;	245,5;	0,0;	0,0
826,517333984375;	266,25;	0,0;	0,0
826,6185302734375;	275,0;	0,0;	0,0
826,7197265625;	276,5;	0,0;	0,0
826,82080078125;	266,0;	0,0;	0,0
826,9219360351562;	265,75;	0,0;	0,0
827,0230712890625;	263,0;	0,0;	0,0
827,1241455078125;	256,0;	0,0;	0,0
827,2252197265625;	284,75;	0,0;	0,0
827,3262939453125;	265,5;	0,0;	0,0
827,42724609375;	278,75;	0,0;	0,0
827,5281982421875;	263,0;	0,0;	0,0
827,6292114257812;	255,5;	0,0;	0,0
827,7301635742188;	253,75;	0,0;	0,0
827,8311157226562;	263,25;	0,0;	0,0
827,9320068359375;	253,75;	0,0;	0,0
828,0328369140625;	272,5;	0,0;	0,0
828,1337890625;	274,75;	0,0;	0,0
828,234619140625;	273,25;	0,0;	0,0
828,3353881835938;	276,5;	0,0;	0,0
828,4362182617188;	249,75;	0,0;	0,0
828,5369873046875;	248,25;	0,0;	0,0
828,6377563476562;	280,25;	0,0;	0,0
828,7384643554688;	258,5;	0,0;	0,0
828,8392333984375;	271,75;	0,0;	0,0
828,93994140625;	255,75;	0,0;	0,0
829,0405883789062;	253,5;	0,0;	0,0
829,1412963867188;	275,0;	0,0;	0,0
829,241943359375;	276,25;	0,0;	0,0
829,3424682617188;	260,75;	0,0;	0,0
829,443115234375;	271,75;	0,0;	0,0
829,543701171875;	243,25;	0,0;	0,0
829,6442260742188;	282,0;	0,0;	0,0
829,7447509765625;	262,0;	0,0;	0,0
829,8452758789062;	254,75;	0,0;	0,0
829,94580078125;	258,75;	0,0;	0,0
830,0462036132812;	267,5;	0,0;	0,0
830,1466674804688;	277,5;	0,0;	0,0
830,2470703125;	248,5;	0,0;	0,0
830,3475341796875;	271,25;	0,0;	0,0
830,4478759765625;	250,25;	0,0;	0,0
830,5482177734375;	277,75;	0,0;	0,0
830,6485595703125;	267,75;	0,0;	0,0
830,7489013671875;	260,75;	0,0;	0,0
830,8491821289062;	253,0;	0,0;	0,0
830,949462890625;	246,5;	0,0;	0,0
831,0497436523438;	267,25;	0,0;	0,0
831,14990234375;	257,25;	0,0;	0,0
831,2501220703125;	245,75;	0,0;	0,0
831,350341796875;	244,0;	0,0;	0,0
831,4505004882812;	270,25;	0,0;	0,0
831,5506591796875;	278,5;	0,0;	0,0
831,6507568359375;	269,0;	0,0;	0,0
831,7508544921875;	267,75;	0,0;	0,0
831,8508911132812;	257,0;	0,0;	0,0
831,9510498046875;	258,0;	0,0;	0,0
832,051025390625;	267,25;	0,0;	0,0
832,1510620117188;	271,0;	0,0;	0,0
832,2509765625;	269,25;	0,0;	0,0
832,3509521484375;	275,5;	0,0;	0,0
832,4509887695312;	278,5;	0,0;	0,0
832,5509033203125;	359,0;	0,0;	0,0
832,6508178710938;	348,0;	0,0;	0,0
832,7506103515625;	248,5;	0,0;	0,0
832,8505249023438;	264,25;	0,0;	0,0
832,9503784179688;	271,25;	0,0;	0,0
833,0502319335938;	297,0;	0,0;	0,0
833,1500244140625;	279,5;	0,0;	0,0
833,249755859375;	268,25;	0,0;	0,0
833,3495483398438;	266,5;	0,0;	0,0
833,4492797851562;	266,5;	0,0;	0,0
833,5490112304688;	260,5;	0,0;	0,0
833,648681640625;	277,75;	0,0;	0,0
833,7484130859375;	251,5;	0,0;	0,0
833,8480224609375;	280,75;	0,0;	0,0
833,9476318359375;	254,25;	0,0;	0,0
834,0473022460938;	272,25;	0,0;	0,0
834,1468505859375;	260,75;	0,0;	0,0
834,2464599609375;	251,25;	0,0;	0,0
834,3460083007812;	280,75;	0,0;	0,0
834,4454956054688;	256,5;	0,0;	0,0
834,5450439453125;	253,0;	0,0;	0,0
834,64453125;	256,25;	0,0;	0,0
834,7439575195312;	256,5;	0,0;	0,0
834,8433837890625;	264,25;	0,0;	0,0
834,9428100585938;	277,75;	0,0;	0,0
835,042236328125;	244,5;	0,0;	0,0
835,1415405273438;	281,5;	0,0;	0,0
835,2409057617188;	269,25;	0,0;	0,0
835,3402709960938;	258,0;	0,0;	0,0
835,4395751953125;	260,75;	0,0;	0,0
835,538818359375;	264,25;	0,0;	0,0
835,6381225585938;	267,75;	0,0;	0,0
835,7373657226562;	291,0;	0,0;	0,0
835,8366088867188;	235,5;	0,0;	0,0
835,9358520507812;	267,75;	0,0;	0,0
836,0350341796875;	265,5;	0,0;	0,0
836,1340942382812;	270,25;	0,0;	0,0
836,2332763671875;	235,0;	0,0;	0,0
836,3323364257812;	247,75;	0,0;	0,0
836,4315185546875;	275,75;	0,0;	0,0
836,530517578125;	262,25;	0,0;	0,0
836,6295776367188;	246,5;	0,0;	0,0
836,7285766601562;	251,5;	0,0;	0,0
836,82763671875;	263,25;	0,0;	0,0
836,9265747070312;	261,75;	0,0;	0,0
837,0255737304688;	249,5;	0,0;	0,0
837,1244506835938;	263,25;	0,0;	0,0
837,2234497070312;	255,75;	0,0;	0,0
837,3223266601562;	254,0;	0,0;	0,0
837,4212036132812;	247,25;	0,0;	0,0
837,5200805664062;	266,25;	0,0;	0,0
837,618896484375;	258,5;	0,0;	0,0
837,7177124023438;	257,75;	0,0;	0,0
837,8165283203125;	265,0;	0,0;	0,0
837,915283203125;	249,0;	0,0;	0,0
838,0140380859375;	255,0;	0,0;	0,0
838,11279296875;	253,75;	0,0;	0,0
838,2114868164062;	252,25;	0,0;	0,0
838,3101196289062;	239,0;	0,0;	0,0
838,4088134765625;	248,0;	0,0;	0,0
838,5075073242188;	256,5;	0,0;	0,0
838,6061401367188;	316,25;	0,0;	0,0
838,7047119140625;	370,5;	0,0;	0,0
838,8032836914062;	258,5;	0,0;	0,0
838,9017944335938;	235,5;	0,0;	0,0
839,0003662109375;	245,75;	0,0;	0,0
839,098876953125;	255,5;	0,0;	0,0
839,1973876953125;	255,75;	0,0;	0,0
839,2958374023438;	251,75;	0,0;	0,0
839,394287109375;	257,75;	0,0;	0,0
839,4927368164062;	251,25;	0,0;	0,0
839,5911254882812;	238,75;	0,0;	0,0
839,6895141601562;	261,25;	0,0;	0,0
839,787841796875;	258,25;	0,0;	0,0
839,8861694335938;	259,25;	0,0;	0,0
839,9844970703125;	269,5;	0,0;	0,0
840,0828247070312;	248,25;	0,0;	0,0
840,1810913085938;	266,0;	0,0;	0,0
840,2793579101562;	253,0;	0,0;	0,0
840,3775024414062;	264,5;	0,0;	0,0
840,475830078125;	262,75;	0,0;	0,0
840,5739135742188;	252,0;	0,0;	0,0
840,6721801757812;	279,0;	0,0;	0,0
840,770263671875;	279,5;	0,0;	0,0
840,868408203125;	240,25;	0,0;	0,0
840,9664916992188;	275,75;	0,0;	0,0
841,0645751953125;	266,0;	0,0;	0,0
841,16259765625;	269,5;	0,0;	0,0
841,2606201171875;	249,75;	0,0;	0,0
841,3587036132812;	258,5;	0,0;	0,0
841,4566650390625;	248,75;	0,0;	0,0
841,5546264648438;	251,5;	0,0;	0,0
841,652587890625;	253,25;	0,0;	0,0
841,75048828125;	242,75;	0,0;	0,0
841,8484497070312;	260,25;	0,0;	0,0
841,9463500976562;	248,75;	0,0;	0,0
842,0441284179688;	262,25;	0,0;	0,0
842,1420288085938;	234,0;	0,0;	0,0
842,2398681640625;	266,75;	0,0;	0,0
842,337646484375;	265,5;	0,0;	0,0
842,4353637695312;	272,25;	0,0;	0,0
842,533203125;	248,0;	0,0;	0,0
842,6309204101562;	260,0;	0,0;	0,0
842,7285766601562;	266,75;	0,0;	0,0
842,8263549804688;	281,25;	0,0;	0,0
842,9240112304688;	269,5;	0,0;	0,0
843,0216064453125;	258,5;	0,0;	0,0
843,1192626953125;	258,0;	0,0;	0,0
843,2168579101562;	259,25;	0,0;	0,0
843,314453125;	249,0;	0,0;	0,0
843,4120483398438;	242,75;	0,0;	0,0
843,509521484375;	269,25;	0,0;	0,0
843,6070556640625;	258,5;	0,0;	0,0
843,7045288085938;	283,5;	0,0;	0,0
843,802001953125;	291,0;	0,0;	0,0
843,8994750976562;	295,75;	0,0;	0,0
843,9968872070312;	271,0;	0,0;	0,0
844,0942993164062;	304,25;	0,0;	0,0
844,191650390625;	346,25;	0,0;	0,0
844,2890014648438;	411,5;	0,0;	0,0
844,3863525390625;	605,75;	0,0;	0,0
844,4837036132812;	901,0;	0,0;	0,0
844,5809326171875;	1219,5;	0,0;	0,0
844,6782836914062;	832,0;	0,0;	0,0
844,7754516601562;	534,25;	0,0;	0,0
844,872802734375;	387,25;	0,0;	0,0
844,9699096679688;	323,5;	0,0;	0,0
845,0671997070312;	293,25;	0,0;	0,0
845,164306640625;	281,5;	0,0;	0,0
845,2614135742188;	295,5;	0,0;	0,0
845,3585815429688;	274,0;	0,0;	0,0
845,4556884765625;	254,25;	0,0;	0,0
845,552734375;	275,0;	0,0;	0,0
845,6498413085938;	248,75;	0,0;	0,0
845,746826171875;	248,25;	0,0;	0,0
845,8438720703125;	259,5;	0,0;	0,0
845,9408569335938;	249,5;	0,0;	0,0
846,037841796875;	272,5;	0,0;	0,0
846,134765625;	273,25;	0,0;	0,0
846,231689453125;	250,5;	0,0;	0,0
846,32861328125;	274,25;	0,0;	0,0
846,4254760742188;	268,25;	0,0;	0,0
846,5223388671875;	251,25;	0,0;	0,0
846,6192016601562;	258,5;	0,0;	0,0
846,716064453125;	298,75;	0,0;	0,0
846,8128051757812;	263,0;	0,0;	0,0
846,9096069335938;	267,5;	0,0;	0,0
847,00634765625;	252,0;	0,0;	0,0
847,1030883789062;	259,25;	0,0;	0,0
847,1998291015625;	270,75;	0,0;	0,0
847,2964477539062;	244,0;	0,0;	0,0
847,3931274414062;	252,75;	0,0;	0,0
847,4898071289062;	267,5;	0,0;	0,0
847,58642578125;	221,0;	0,0;	0,0
847,6829833984375;	258,25;	0,0;	0,0
847,779541015625;	247,0;	0,0;	0,0
847,8760986328125;	256,75;	0,0;	0,0
847,97265625;	261,25;	0,0;	0,0
848,0691528320312;	238,5;	0,0;	0,0
848,1656494140625;	263,0;	0,0;	0,0
848,2621459960938;	241,0;	0,0;	0,0
848,3585815429688;	241,75;	0,0;	0,0
848,4549560546875;	257,0;	0,0;	0,0
848,5513305664062;	255,75;	0,0;	0,0
848,6478271484375;	246,0;	0,0;	0,0
848,7440795898438;	256,0;	0,0;	0,0
848,8405151367188;	247,25;	0,0;	0,0
848,936767578125;	268,5;	0,0;	0,0
849,0330810546875;	231,75;	0,0;	0,0
849,1293334960938;	256,0;	0,0;	0,0
849,2256469726562;	255,5;	0,0;	0,0
849,32177734375;	258,5;	0,0;	0,0
849,4180297851562;	250,75;	0,0;	0,0
849,51416015625;	252,25;	0,0;	0,0
849,6103515625;	273,5;	0,0;	0,0
849,7064819335938;	290,75;	0,0;	0,0
849,8026123046875;	276,25;	0,0;	0,0
849,898681640625;	245,25;	0,0;	0,0
849,9947509765625;	252,0;	0,0;	0,0
850,0908203125;	268,75;	0,0;	0,0
850,1868286132812;	243,25;	0,0;	0,0
850,2828979492188;	231,0;	0,0;	0,0
850,3788452148438;	265,5;	0,0;	0,0
850,474853515625;	218,5;	0,0;	0,0
850,5707397460938;	241,75;	0,0;	0,0
850,6666870117188;	245,0;	0,0;	0,0
850,7625732421875;	256,0;	0,0;	0,0
850,8583984375;	248,75;	0,0;	0,0
850,9542846679688;	266,25;	0,0;	0,0
851,0501098632812;	256,25;	0,0;	0,0
851,1459350585938;	272,0;	0,0;	0,0
851,24169921875;	252,5;	0,0;	0,0
851,3374633789062;	267,75;	0,0;	0,0
851,4332275390625;	260,5;	0,0;	0,0
851,5289306640625;	266,0;	0,0;	0,0
851,6246337890625;	249,0;	0,0;	0,0
851,7203369140625;	252,75;	0,0;	0,0
851,8159790039062;	238,75;	0,0;	0,0
851,91162109375;	254,75;	0,0;	0,0
852,0072631835938;	257,0;	0,0;	0,0
852,1028442382812;	253,0;	0,0;	0,0
852,1983642578125;	249,25;	0,0;	0,0
852,2939453125;	272,75;	0,0;	0,0
852,3894653320312;	260,75;	0,0;	0,0
852,4849853515625;	256,5;	0,0;	0,0
852,5804443359375;	237,0;	0,0;	0,0
852,6758422851562;	270,0;	0,0;	0,0
852,7713012695312;	257,25;	0,0;	0,0
852,86669921875;	261,25;	0,0;	0,0
852,962158203125;	251,75;	0,0;	0,0
853,0574340820312;	241,5;	0,0;	0,0
853,15283203125;	268,5;	0,0;	0,0
853,2481689453125;	241,0;	0,0;	0,0
853,343505859375;	255,0;	0,0;	0,0
853,4386596679688;	254,25;	0,0;	0,0
853,5340576171875;	248,25;	0,0;	0,0
853,6292114257812;	254,25;	0,0;	0,0
853,7244262695312;	248,0;	0,0;	0,0
853,819580078125;	275,5;	0,0;	0,0
853,9147338867188;	306,0;	0,0;	0,0
854,0098876953125;	357,0;	0,0;	0,0
854,1050415039062;	469,0;	0,0;	0,0
854,2001342773438;	347,0;	0,0;	0,0
854,2952270507812;	256,25;	0,0;	0,0
854,3903198242188;	264,0;	0,0;	0,0
854,4852905273438;	263,0;	0,0;	0,0
854,580322265625;	277,0;	0,0;	0,0
854,6753540039062;	250,0;	0,0;	0,0
854,7703247070312;	277,0;	0,0;	0,0
854,865234375;	262,0;	0,0;	0,0
854,960205078125;	249,5;	0,0;	0,0
855,0551147460938;	271,0;	0,0;	0,0
855,1499633789062;	246,0;	0,0;	0,0
855,2448120117188;	247,0;	0,0;	0,0
855,3396606445312;	259,0;	0,0;	0,0
855,4344482421875;	260,25;	0,0;	0,0
855,5292358398438;	239,0;	0,0;	0,0
855,6240234375;	260,5;	0,0;	0,0
855,7188110351562;	250,5;	0,0;	0,0
855,8135375976562;	255,5;	0,0;	0,0
855,9082641601562;	258,0;	0,0;	0,0
856,0029296875;	269,5;	0,0;	0,0
856,0975952148438;	272,75;	0,0;	0,0
856,1921997070312;	254,25;	0,0;	0,0
856,286865234375;	252,75;	0,0;	0,0
856,3814086914062;	263,5;	0,0;	0,0
856,4760131835938;	273,75;	0,0;	0,0
856,570556640625;	288,75;	0,0;	0,0
856,6651000976562;	334,5;	0,0;	0,0
856,759521484375;	349,75;	0,0;	0,0
856,8540649414062;	314,75;	0,0;	0,0
856,948486328125;	281,75;	0,0;	0,0
857,04296875;	277,25;	0,0;	0,0
857,1373291015625;	258,75;	0,0;	0,0
857,2317504882812;	255,75;	0,0;	0,0
857,3261108398438;	241,25;	0,0;	0,0
857,4204711914062;	256,75;	0,0;	0,0
857,5147705078125;	268,5;	0,0;	0,0
857,609130859375;	268,75;	0,0;	0,0
857,703369140625;	250,25;	0,0;	0,0
857,797607421875;	261,0;	0,0;	0,0
857,891845703125;	236,25;	0,0;	0,0
857,986083984375;	234,25;	0,0;	0,0
858,0802612304688;	252,75;	0,0;	0,0
858,1744384765625;	264,5;	0,0;	0,0
858,2686157226562;	247,5;	0,0;	0,0
858,3627319335938;	256,5;	0,0;	0,0
858,4568481445312;	244,5;	0,0;	0,0
858,5509033203125;	254,25;	0,0;	0,0
858,6449584960938;	273,75;	0,0;	0,0
858,739013671875;	264,75;	0,0;	0,0
858,8330078125;	271,75;	0,0;	0,0
858,927001953125;	265,75;	0,0;	0,0
859,0209350585938;	283,5;	0,0;	0,0
859,1149291992188;	309,25;	0,0;	0,0
859,2088623046875;	359,75;	0,0;	0,0
859,302734375;	426,75;	0,0;	0,0
859,3966674804688;	437,75;	0,0;	0,0
859,4905395507812;	367,75;	0,0;	0,0
859,5843505859375;	334,5;	0,0;	0,0
859,6781616210938;	305,25;	0,0;	0,0
859,77197265625;	267,25;	0,0;	0,0
859,86572265625;	274,25;	0,0;	0,0
859,95947265625;	275,25;	0,0;	0,0
860,05322265625;	267,75;	0,0;	0,0
860,1469116210938;	254,0;	0,0;	0,0
860,2406005859375;	244,0;	0,0;	0,0
860,3342895507812;	275,0;	0,0;	0,0
860,4278564453125;	257,5;	0,0;	0,0
860,521484375;	267,75;	0,0;	0,0
860,6151123046875;	252,0;	0,0;	0,0
860,7086791992188;	249,5;	0,0;	0,0
860,8021240234375;	242,5;	0,0;	0,0
860,8956909179688;	244,25;	0,0;	0,0
860,9891357421875;	271,75;	0,0;	0,0
861,0827026367188;	274,5;	0,0;	0,0
861,1760864257812;	252,25;	0,0;	0,0
861,2695922851562;	269,75;	0,0;	0,0
861,3629760742188;	258,5;	0,0;	0,0
861,4563598632812;	262,25;	0,0;	0,0
861,5497436523438;	272,75;	0,0;	0,0
861,64306640625;	237,5;	0,0;	0,0
861,7363891601562;	277,25;	0,0;	0,0
861,8296508789062;	286,25;	0,0;	0,0
861,9229736328125;	276,0;	0,0;	0,0
862,0162353515625;	269,75;	0,0;	0,0
862,1094360351562;	260,25;	0,0;	0,0
862,20263671875;	289,5;	0,0;	0,0
862,2958374023438;	277,5;	0,0;	0,0
862,3890380859375;	282,0;	0,0;	0,0
862,482177734375;	279,25;	0,0;	0,0
862,5753173828125;	336,0;	0,0;	0,0
862,6683959960938;	432,75;	0,0;	0,0
862,761474609375;	564,75;	0,0;	0,0
862,8545532226562;	674,5;	0,0;	0,0
862,9475708007812;	609,5;	0,0;	0,0
863,0405883789062;	468,5;	0,0;	0,0
863,133544921875;	374,75;	0,0;	0,0
863,2265625;	345,75;	0,0;	0,0
863,3194580078125;	296,75;	0,0;	0,0
863,412353515625;	257,75;	0,0;	0,0
863,5052490234375;	275,75;	0,0;	0,0
863,59814453125;	272,75;	0,0;	0,0
863,6909790039062;	260,75;	0,0;	0,0
863,7838134765625;	265,75;	0,0;	0,0
863,8766479492188;	259,25;	0,0;	0,0
863,9694213867188;	259,25;	0,0;	0,0
864,0621948242188;	275,25;	0,0;	0,0
864,1549072265625;	261,75;	0,0;	0,0
864,2476806640625;	250,25;	0,0;	0,0
864,34033203125;	242,5;	0,0;	0,0
864,4330444335938;	240,5;	0,0;	0,0
864,5256958007812;	258,0;	0,0;	0,0
864,6182861328125;	255,25;	0,0;	0,0
864,7109375;	253,0;	0,0;	0,0
864,803466796875;	263,25;	0,0;	0,0
864,8960571289062;	237,25;	0,0;	0,0
864,988525390625;	245,5;	0,0;	0,0
865,0811157226562;	267,5;	0,0;	0,0
865,1735229492188;	290,5;	0,0;	0,0
865,2660522460938;	302,5;	0,0;	0,0
865,3584594726562;	288,5;	0,0;	0,0
865,4509887695312;	306,75;	0,0;	0,0
865,5432739257812;	355,75;	0,0;	0,0
865,6357421875;	333,75;	0,0;	0,0
865,72802734375;	291,75;	0,0;	0,0
865,8203125;	286,75;	0,0;	0,0
865,9127197265625;	299,25;	0,0;	0,0
866,0049438476562;	371,25;	0,0;	0,0
866,0972290039062;	433,25;	0,0;	0,0
866,189453125;	390,25;	0,0;	0,0
866,2816772460938;	282,75;	0,0;	0,0
866,3739013671875;	273,0;	0,0;	0,0
866,466064453125;	256,5;	0,0;	0,0
866,5582275390625;	281,5;	0,0;	0,0
866,6503295898438;	268,0;	0,0;	0,0
866,7424926757812;	281,25;	0,0;	0,0
866,8345336914062;	268,5;	0,0;	0,0
866,9266357421875;	274,75;	0,0;	0,0
867,0186767578125;	284,25;	0,0;	0,0
867,1107177734375;	287,0;	0,0;	0,0
867,2026977539062;	287,0;	0,0;	0,0
867,294677734375;	330,75;	0,0;	0,0
867,3865966796875;	348,75;	0,0;	0,0
867,478515625;	356,5;	0,0;	0,0
867,5704345703125;	413,5;	0,0;	0,0
867,662353515625;	486,5;	0,0;	0,0
867,7542114257812;	736,75;	0,0;	0,0
867,8460693359375;	1077,75;	0,0;	0,0
867,9378662109375;	1415,25;	0,0;	0,0
868,0296630859375;	1363,25;	0,0;	0,0
868,1213989257812;	1032,25;	0,0;	0,0
868,2131958007812;	1095,75;	0,0;	0,0
868,3048706054688;	1047,25;	0,0;	0,0
868,3965454101562;	833,5;	0,0;	0,0
868,48828125;	725,0;	0,0;	0,0
868,5799560546875;	640,5;	0,0;	0,0
868,6715698242188;	543,75;	0,0;	0,0
868,7631225585938;	539,0;	0,0;	0,0
868,8547973632812;	405,75;	0,0;	0,0
868,9462890625;	303,0;	0,0;	0,0
869,037841796875;	262,75;	0,0;	0,0
869,1293334960938;	276,25;	0,0;	0,0
869,220947265625;	278,0;	0,0;	0,0
869,3123168945312;	288,25;	0,0;	0,0
869,4038696289062;	273,0;	0,0;	0,0
869,4951782226562;	277,25;	0,0;	0,0
869,5867309570312;	264,5;	0,0;	0,0
869,6780395507812;	269,5;	0,0;	0,0
869,7693481445312;	254,5;	0,0;	0,0
869,8607177734375;	275,5;	0,0;	0,0
869,9520263671875;	296,0;	0,0;	0,0
870,0433349609375;	357,25;	0,0;	0,0
870,1345825195312;	442,25;	0,0;	0,0
870,225830078125;	568,25;	0,0;	0,0
870,3170776367188;	501,75;	0,0;	0,0
870,4082641601562;	389,0;	0,0;	0,0
870,4994506835938;	305,0;	0,0;	0,0
870,590576171875;	300,0;	0,0;	0,0
870,6817626953125;	297,5;	0,0;	0,0
870,7728271484375;	311,75;	0,0;	0,0
870,8639526367188;	363,5;	0,0;	0,0
870,9550170898438;	447,0;	0,0;	0,0
871,0460815429688;	565,0;	0,0;	0,0
871,1370849609375;	557,25;	0,0;	0,0
871,2280883789062;	422,75;	0,0;	0,0
871,319091796875;	338,25;	0,0;	0,0
871,4100341796875;	298,5;	0,0;	0,0
871,5009155273438;	312,5;	0,0;	0,0
871,5918579101562;	349,0;	0,0;	0,0
871,6828002929688;	387,25;	0,0;	0,0
871,7736206054688;	528,0;	0,0;	0,0
871,864501953125;	497,75;	0,0;	0,0
871,9552612304688;	353,25;	0,0;	0,0
872,0460815429688;	294,0;	0,0;	0,0
872,1369018554688;	272,0;	0,0;	0,0
872,2276000976562;	254,5;	0,0;	0,0
872,318359375;	279,25;	0,0;	0,0
872,4090576171875;	258,5;	0,0;	0,0
872,4996948242188;	274,5;	0,0;	0,0
872,5903930664062;	277,0;	0,0;	0,0
872,680908203125;	263,25;	0,0;	0,0
872,7716064453125;	271,0;	0,0;	0,0
872,8621826171875;	289,25;	0,0;	0,0
872,9527587890625;	270,25;	0,0;	0,0
873,0432739257812;	279,0;	0,0;	0,0
873,1338500976562;	231,0;	0,0;	0,0
873,2243041992188;	248,0;	0,0;	0,0
873,3148193359375;	251,5;	0,0;	0,0
873,4052124023438;	243,0;	0,0;	0,0
873,4957275390625;	246,5;	0,0;	0,0
873,5860595703125;	272,5;	0,0;	0,0
873,6764526367188;	249,0;	0,0;	0,0
873,766845703125;	236,25;	0,0;	0,0
873,857177734375;	254,0;	0,0;	0,0
873,9474487304688;	261,75;	0,0;	0,0
874,0377807617188;	235,75;	0,0;	0,0
874,1279907226562;	237,0;	0,0;	0,0
874,21826171875;	250,0;	0,0;	0,0
874,3084716796875;	246,5;	0,0;	0,0
874,3987426757812;	250,25;	0,0;	0,0
874,4888916015625;	260,75;	0,0;	0,0
874,5790405273438;	239,5;	0,0;	0,0
874,669189453125;	261,0;	0,0;	0,0
874,75927734375;	241,25;	0,0;	0,0
874,849365234375;	260,5;	0,0;	0,0
874,939453125;	239,75;	0,0;	0,0
875,0294799804688;	244,75;	0,0;	0,0
875,1195068359375;	254,5;	0,0;	0,0
875,20947265625;	260,5;	0,0;	0,0
875,2994995117188;	251,25;	0,0;	0,0
875,389404296875;	259,75;	0,0;	0,0
875,4793090820312;	241,25;	0,0;	0,0
875,5692749023438;	236,75;	0,0;	0,0
875,6591186523438;	241,75;	0,0;	0,0
875,7490234375;	237,0;	0,0;	0,0
875,8388061523438;	261,25;	0,0;	0,0
875,9286499023438;	249,0;	0,0;	0,0
876,0184326171875;	245,25;	0,0;	0,0
876,1082153320312;	242,75;	0,0;	0,0
876,197998046875;	247,0;	0,0;	0,0
876,2876586914062;	274,5;	0,0;	0,0
876,3773803710938;	243,5;	0,0;	0,0
876,4671020507812;	254,0;	0,0;	0,0
876,556640625;	229,75;	0,0;	0,0
876,6463012695312;	230,5;	0,0;	0,0
876,7359008789062;	229,25;	0,0;	0,0
876,8255615234375;	248,75;	0,0;	0,0
876,9150390625;	239,0;	0,0;	0,0
877,004638671875;	245,25;	0,0;	0,0
877,0941162109375;	254,75;	0,0;	0,0
877,1836547851562;	246,5;	0,0;	0,0
877,2730712890625;	244,25;	0,0;	0,0
877,3626098632812;	241,5;	0,0;	0,0
877,451904296875;	245,0;	0,0;	0,0
877,5413208007812;	252,25;	0,0;	0,0
877,6306762695312;	237,75;	0,0;	0,0
877,7200927734375;	249,5;	0,0;	0,0
877,8093872070312;	226,25;	0,0;	0,0
877,898681640625;	219,0;	0,0;	0,0
877,988037109375;	246,5;	0,0;	0,0
878,0772705078125;	243,25;	0,0;	0,0
878,16650390625;	249,75;	0,0;	0,0
878,2557373046875;	238,0;	0,0;	0,0
878,3449096679688;	237,5;	0,0;	0,0
878,43408203125;	231,75;	0,0;	0,0
878,5232543945312;	263,5;	0,0;	0,0
878,6123657226562;	250,75;	0,0;	0,0
878,7014770507812;	255,5;	0,0;	0,0
878,7905883789062;	252,75;	0,0;	0,0
878,8795776367188;	230,25;	0,0;	0,0
878,9686279296875;	239,75;	0,0;	0,0
879,0576782226562;	257,75;	0,0;	0,0
879,1466674804688;	246,25;	0,0;	0,0
879,235595703125;	262,75;	0,0;	0,0
879,3245239257812;	243,5;	0,0;	0,0
879,4134521484375;	244,25;	0,0;	0,0
879,5023193359375;	244,75;	0,0;	0,0
879,5911865234375;	239,5;	0,0;	0,0
879,6800537109375;	264,25;	0,0;	0,0
879,7688598632812;	228,75;	0,0;	0,0
879,8577270507812;	239,0;	0,0;	0,0
879,9464721679688;	227,75;	0,0;	0,0
880,0352783203125;	239,75;	0,0;	0,0
880,1239624023438;	233,0;	0,0;	0,0
880,212646484375;	263,25;	0,0;	0,0
880,3013305664062;	238,0;	0,0;	0,0
880,3899536132812;	261,75;	0,0;	0,0
880,4786376953125;	235,25;	0,0;	0,0
880,5671997070312;	231,5;	0,0;	0,0
880,6558837890625;	252,5;	0,0;	0,0
880,7444458007812;	229,5;	0,0;	0,0
880,8330078125;	227,25;	0,0;	0,0
880,9215087890625;	216,5;	0,0;	0,0
881,010009765625;	250,75;	0,0;	0,0
881,0985107421875;	259,75;	0,0;	0,0
881,18701171875;	233,75;	0,0;	0,0
881,2753295898438;	240,5;	0,0;	0,0
881,36376953125;	250,75;	0,0;	0,0
881,4521484375;	237,75;	0,0;	0,0
881,54052734375;	232,75;	0,0;	0,0
881,6288452148438;	233,75;	0,0;	0,0
881,7171630859375;	255,75;	0,0;	0,0
881,8054809570312;	248,25;	0,0;	0,0
881,8937377929688;	282,25;	0,0;	0,0
881,9819946289062;	257,75;	0,0;	0,0
882,0701904296875;	276,75;	0,0;	0,0
882,158447265625;	268,25;	0,0;	0,0
882,24658203125;	304,0;	0,0;	0,0
882,334716796875;	296,0;	0,0;	0,0
882,4228515625;	268,75;	0,0;	0,0
882,510986328125;	247,25;	0,0;	0,0
882,5990600585938;	229,5;	0,0;	0,0
882,6871337890625;	240,0;	0,0;	0,0
882,7752075195312;	240,0;	0,0;	0,0
882,8632202148438;	243,75;	0,0;	0,0
882,951171875;	227,5;	0,0;	0,0
883,0391845703125;	234,25;	0,0;	0,0
883,1271362304688;	228,5;	0,0;	0,0
883,2150268554688;	232,5;	0,0;	0,0
883,3029174804688;	236,75;	0,0;	0,0
883,390869140625;	236,75;	0,0;	0,0
883,4786987304688;	246,5;	0,0;	0,0
883,5665283203125;	243,75;	0,0;	0,0
883,6543579101562;	249,75;	0,0;	0,0
883,7421264648438;	251,25;	0,0;	0,0
883,829833984375;	260,25;	0,0;	0,0
883,9176025390625;	228,75;	0,0;	0,0
884,0053100585938;	236,25;	0,0;	0,0
884,093017578125;	251,75;	0,0;	0,0
884,1806640625;	230,0;	0,0;	0,0
884,268310546875;	243,0;	0,0;	0,0
884,3558959960938;	232,25;	0,0;	0,0
884,4435424804688;	239,5;	0,0;	0,0
884,5310668945312;	227,25;	0,0;	0,0
884,6187133789062;	234,0;	0,0;	0,0
884,7061767578125;	225,5;	0,0;	0,0
884,7937622070312;	246,5;	0,0;	0,0
884,8811645507812;	236,25;	0,0;	0,0
884,9686889648438;	233,5;	0,0;	0,0
885,0560302734375;	247,5;	0,0;	0,0
885,1434936523438;	239,75;	0,0;	0,0
885,2308349609375;	219,25;	0,0;	0,0
885,3182373046875;	243,5;	0,0;	0,0
885,4055786132812;	239,75;	0,0;	0,0
885,4928588867188;	223,75;	0,0;	0,0
885,5801391601562;	245,75;	0,0;	0,0
885,6674194335938;	219,0;	0,0;	0,0
885,7546997070312;	229,25;	0,0;	0,0
885,8419189453125;	237,75;	0,0;	0,0
885,9291381835938;	249,75;	0,0;	0,0
886,016357421875;	237,25;	0,0;	0,0
886,103515625;	239,0;	0,0;	0,0
886,1906127929688;	245,5;	0,0;	0,0
886,2777709960938;	258,25;	0,0;	0,0
886,3648071289062;	249,25;	0,0;	0,0
886,4518432617188;	244,5;	0,0;	0,0
886,5389404296875;	263,5;	0,0;	0,0
886,6259765625;	262,75;	0,0;	0,0
886,7129516601562;	236,0;	0,0;	0,0
886,7999267578125;	240,5;	0,0;	0,0
886,8869018554688;	247,75;	0,0;	0,0
886,9737548828125;	222,75;	0,0;	0,0
887,0606689453125;	228,25;	0,0;	0,0
887,1475830078125;	225,0;	0,0;	0,0
887,2344360351562;	242,75;	0,0;	0,0
887,3212890625;	241,75;	0,0;	0,0
887,4080810546875;	250,25;	0,0;	0,0
887,4948120117188;	233,5;	0,0;	0,0
887,5816650390625;	235,0;	0,0;	0,0
887,6683959960938;	225,25;	0,0;	0,0
887,7550659179688;	244,75;	0,0;	0,0
887,841796875;	237,0;	0,0;	0,0
887,9284057617188;	224,75;	0,0;	0,0
888,0150756835938;	240,0;	0,0;	0,0
888,1016235351562;	237,5;	0,0;	0,0
888,1883544921875;	251,75;	0,0;	0,0
888,2747802734375;	249,5;	0,0;	0,0
888,3614501953125;	228,75;	0,0;	0,0
888,4478759765625;	231,0;	0,0;	0,0
888,534423828125;	242,25;	0,0;	0,0
888,620849609375;	254,25;	0,0;	0,0
888,7073974609375;	206,75;	0,0;	0,0
888,7937622070312;	229,75;	0,0;	0,0
888,8801879882812;	255,0;	0,0;	0,0
888,966552734375;	248,0;	0,0;	0,0
889,0529174804688;	259,0;	0,0;	0,0
889,1392822265625;	243,75;	0,0;	0,0
889,2255859375;	225,25;	0,0;	0,0
889,3118896484375;	239,5;	0,0;	0,0
889,398193359375;	255,5;	0,0;	0,0
889,484375;	270,0;	0,0;	0,0
889,5706787109375;	242,75;	0,0;	0,0
889,6568603515625;	224,5;	0,0;	0,0
889,7430419921875;	227,75;	0,0;	0,0
889,8291625976562;	242,25;	0,0;	0,0
889,9153442382812;	245,0;	0,0;	0,0
890,0014038085938;	230,25;	0,0;	0,0
890,0874633789062;	236,75;	0,0;	0,0
890,173583984375;	255,25;	0,0;	0,0
890,2595825195312;	248,5;	0,0;	0,0
890,3456420898438;	258,0;	0,0;	0,0
890,4315795898438;	235,0;	0,0;	0,0
890,5175170898438;	240,25;	0,0;	0,0
890,6034545898438;	256,0;	0,0;	0,0
890,689453125;	222,25;	0,0;	0,0
890,7753295898438;	232,5;	0,0;	0,0
890,8611450195312;	244,0;	0,0;	0,0
890,947021484375;	231,0;	0,0;	0,0
891,0328369140625;	251,0;	0,0;	0,0
891,1187133789062;	235,5;	0,0;	0,0
891,2044067382812;	222,25;	0,0;	0,0
891,2902221679688;	223,5;	0,0;	0,0
891,3759155273438;	249,5;	0,0;	0,0
891,4616088867188;	230,5;	0,0;	0,0
891,54736328125;	242,75;	0,0;	0,0
891,6329345703125;	220,0;	0,0;	0,0
891,7186279296875;	231,25;	0,0;	0,0
891,80419921875;	233,25;	0,0;	0,0
891,8898315429688;	231,25;	0,0;	0,0
891,975341796875;	230,25;	0,0;	0,0
892,0609130859375;	239,5;	0,0;	0,0
892,1464233398438;	247,0;	0,0;	0,0
892,23193359375;	242,0;	0,0;	0,0
892,3173828125;	251,5;	0,0;	0,0
892,4028930664062;	230,0;	0,0;	0,0
892,4882202148438;	244,75;	0,0;	0,0
892,5736083984375;	247,5;	0,0;	0,0
892,6589965820312;	245,0;	0,0;	0,0
892,744384765625;	248,75;	0,0;	0,0
892,8297119140625;	237,5;	0,0;	0,0
892,9150390625;	253,25;	0,0;	0,0
893,0003051757812;	233,25;	0,0;	0,0
893,0855712890625;	238,5;	0,0;	0,0
893,1708374023438;	233,25;	0,0;	0,0
893,2559814453125;	227,75;	0,0;	0,0
893,3412475585938;	225,0;	0,0;	0,0
893,4263916015625;	237,5;	0,0;	0,0
893,5115356445312;	248,25;	0,0;	0,0
893,5966186523438;	224,0;	0,0;	0,0
893,6817016601562;	242,25;	0,0;	0,0
893,7667846679688;	229,5;	0,0;	0,0
893,8518676757812;	222,75;	0,0;	0,0
893,9368896484375;	251,0;	0,0;	0,0
894,0218505859375;	232,5;	0,0;	0,0
894,1068725585938;	251,5;	0,0;	0,0
894,1918334960938;	244,75;	0,0;	0,0
894,2767944335938;	224,75;	0,0;	0,0
894,3616333007812;	242,0;	0,0;	0,0
894,446533203125;	236,75;	0,0;	0,0
894,5313720703125;	234,75;	0,0;	0,0
894,6162109375;	243,75;	0,0;	0,0
894,7010498046875;	224,75;	0,0;	0,0
894,7858276367188;	241,5;	0,0;	0,0
894,87060546875;	230,25;	0,0;	0,0
894,9553833007812;	219,75;	0,0;	0,0
895,0401000976562;	246,75;	0,0;	0,0
895,1248168945312;	251,25;	0,0;	0,0
895,20947265625;	247,25;	0,0;	0,0
895,2940063476562;	235,0;	0,0;	0,0
895,3787231445312;	230,25;	0,0;	0,0
895,4632568359375;	241,75;	0,0;	0,0
895,5479125976562;	252,0;	0,0;	0,0
895,6324462890625;	221,0;	0,0;	0,0
895,7169799804688;	251,0;	0,0;	0,0
895,8013916015625;	237,5;	0,0;	0,0
895,885986328125;	234,75;	0,0;	0,0
895,9703369140625;	239,5;	0,0;	0,0
896,0548706054688;	249,0;	0,0;	0,0
896,1392211914062;	227,5;	0,0;	0,0
896,2236328125;	232,25;	0,0;	0,0
896,3079833984375;	223,75;	0,0;	0,0
896,392333984375;	221,75;	0,0;	0,0
896,4766235351562;	209,0;	0,0;	0,0
896,5609130859375;	230,75;	0,0;	0,0
896,6452026367188;	235,5;	0,0;	0,0
896,7294921875;	232,25;	0,0;	0,0
896,8136596679688;	229,75;	0,0;	0,0
896,8978881835938;	229,5;	0,0;	0,0
896,9819946289062;	227,75;	0,0;	0,0
897,0662231445312;	230,25;	0,0;	0,0
897,1503295898438;	242,0;	0,0;	0,0
897,234375;	226,75;	0,0;	0,0
897,3184814453125;	249,25;	0,0;	0,0
897,4025268554688;	228,75;	0,0;	0,0
897,486572265625;	223,5;	0,0;	0,0
897,570556640625;	243,0;	0,0;	0,0
897,6546020507812;	238,25;	0,0;	0,0
897,738525390625;	230,0;	0,0;	0,0
897,8224487304688;	233,25;	0,0;	0,0
897,9063720703125;	227,25;	0,0;	0,0
897,9902954101562;	241,5;	0,0;	0,0
898,0741577148438;	228,0;	0,0;	0,0
898,157958984375;	228,0;	0,0;	0,0
898,2417602539062;	249,5;	0,0;	0,0
898,3255615234375;	243,5;	0,0;	0,0
898,4093627929688;	246,75;	0,0;	0,0
898,4931030273438;	243,5;	0,0;	0,0
898,5768432617188;	216,5;	0,0;	0,0
898,6605834960938;	234,75;	0,0;	0,0
898,7442016601562;	243,75;	0,0;	0,0
898,827880859375;	230,25;	0,0;	0,0
898,9114379882812;	235,25;	0,0;	0,0
898,9950561523438;	238,25;	0,0;	0,0
899,07861328125;	237,75;	0,0;	0,0
899,1622314453125;	227,75;	0,0;	0,0
899,2456665039062;	235,0;	0,0;	0,0
899,3292846679688;	253,5;	0,0;	0,0
899,4127197265625;	220,5;	0,0;	0,0
899,4962158203125;	247,25;	0,0;	0,0
899,57958984375;	240,25;	0,0;	0,0
899,6630859375;	220,5;	0,0;	0,0
899,7463989257812;	265,75;	0,0;	0,0
899,8297729492188;	265,25;	0,0;	0,0
899,9130859375;	274,5;	0,0;	0,0
899,9963989257812;	253,5;	0,0;	0,0
900,0797119140625;	245,75;	0,0;	0,0
900,1629638671875;	253,25;	0,0;	0,0
900,2462158203125;	239,0;	0,0;	0,0
900,3294677734375;	232,75;	0,0;	0,0
900,4127197265625;	240,75;	0,0;	0,0
900,495849609375;	254,75;	0,0;	0,0
900,5790405273438;	262,5;	0,0;	0,0
900,662109375;	226,0;	0,0;	0,0
900,7451782226562;	229,25;	0,0;	0,0
900,8283081054688;	247,25;	0,0;	0,0
900,911376953125;	235,25;	0,0;	0,0
900,9944458007812;	245,25;	0,0;	0,0
901,0774536132812;	245,5;	0,0;	0,0
901,1603393554688;	239,5;	0,0;	0,0
901,2433471679688;	234,5;	0,0;	0,0
901,3262939453125;	236,5;	0,0;	0,0
901,4091796875;	232,0;	0,0;	0,0
901,4921264648438;	240,75;	0,0;	0,0
901,574951171875;	238,25;	0,0;	0,0
901,6578369140625;	267,75;	0,0;	0,0
901,7406616210938;	238,75;	0,0;	0,0
901,8234252929688;	245,5;	0,0;	0,0
901,9061889648438;	252,25;	0,0;	0,0
901,9889526367188;	230,0;	0,0;	0,0
902,0715942382812;	250,25;	0,0;	0,0
902,1543579101562;	239,75;	0,0;	0,0
902,237060546875;	228,25;	0,0;	0,0
902,3196411132812;	243,0;	0,0;	0,0
902,40234375;	247,5;	0,0;	0,0
902,48486328125;	250,0;	0,0;	0,0
902,5674438476562;	281,25;	0,0;	0,0
902,6499633789062;	257,0;	0,0;	0,0
902,7325439453125;	251,5;	0,0;	0,0
902,8150024414062;	281,75;	0,0;	0,0
902,8975219726562;	270,0;	0,0;	0,0
902,97998046875;	278,0;	0,0;	0,0
903,0624389648438;	281,0;	0,0;	0,0
903,144775390625;	277,75;	0,0;	0,0
903,227294921875;	240,25;	0,0;	0,0
903,3095703125;	252,5;	0,0;	0,0
903,391845703125;	246,0;	0,0;	0,0
903,4742431640625;	253,0;	0,0;	0,0
903,5565185546875;	264,75;	0,0;	0,0
903,6387939453125;	268,0;	0,0;	0,0
903,7210083007812;	244,25;	0,0;	0,0
903,80322265625;	220,0;	0,0;	0,0
903,8854370117188;	242,0;	0,0;	0,0
903,9675903320312;	240,25;	0,0;	0,0
904,0497436523438;	272,5;	0,0;	0,0
904,1318969726562;	272,5;	0,0;	0,0
904,2139892578125;	295,5;	0,0;	0,0
904,2960205078125;	314,5;	0,0;	0,0
904,3780517578125;	362,5;	0,0;	0,0
904,4600830078125;	395,25;	0,0;	0,0
904,5421142578125;	415,25;	0,0;	0,0
904,6240844726562;	379,25;	0,0;	0,0
904,7060546875;	333,75;	0,0;	0,0
904,7879638671875;	365,25;	0,0;	0,0
904,869873046875;	380,0;	0,0;	0,0
904,9517211914062;	349,0;	0,0;	0,0
905,0336303710938;	303,5;	0,0;	0,0
905,115478515625;	256,25;	0,0;	0,0
905,197265625;	290,0;	0,0;	0,0
905,279052734375;	267,5;	0,0;	0,0
905,36083984375;	254,5;	0,0;	0,0
905,4425659179688;	263,75;	0,0;	0,0
905,5242919921875;	250,5;	0,0;	0,0
905,6060180664062;	254,0;	0,0;	0,0
905,6876220703125;	271,75;	0,0;	0,0
905,769287109375;	285,75;	0,0;	0,0
905,8508911132812;	269,25;	0,0;	0,0
905,9324951171875;	297,25;	0,0;	0,0
906,0140380859375;	329,0;	0,0;	0,0
906,0956420898438;	305,75;	0,0;	0,0
906,1771240234375;	293,75;	0,0;	0,0
906,2586669921875;	318,0;	0,0;	0,0
906,3400268554688;	270,0;	0,0;	0,0
906,4215698242188;	266,0;	0,0;	0,0
906,5029296875;	268,25;	0,0;	0,0
906,5844116210938;	267,75;	0,0;	0,0
906,6657104492188;	268,5;	0,0;	0,0
906,7471313476562;	273,0;	0,0;	0,0
906,828369140625;	255,0;	0,0;	0,0
906,90966796875;	264,5;	0,0;	0,0
906,990966796875;	263,75;	0,0;	0,0
907,0722045898438;	245,75;	0,0;	0,0
907,1534423828125;	245,0;	0,0;	0,0
907,2346801757812;	245,0;	0,0;	0,0
907,3158569335938;	241,75;	0,0;	0,0
907,3970336914062;	235,25;	0,0;	0,0
907,4781494140625;	222,75;	0,0;	0,0
907,559326171875;	262,5;	0,0;	0,0
907,640380859375;	237,5;	0,0;	0,0
907,721435546875;	238,25;	0,0;	0,0
907,802490234375;	246,0;	0,0;	0,0
907,8834838867188;	244,25;	0,0;	0,0
907,9644775390625;	223,25;	0,0;	0,0
908,0454711914062;	226,75;	0,0;	0,0
908,1264038085938;	237,0;	0,0;	0,0
908,2073364257812;	260,0;	0,0;	0,0
908,2882080078125;	254,5;	0,0;	0,0
908,3690795898438;	230,0;	0,0;	0,0
908,449951171875;	247,25;	0,0;	0,0
908,53076171875;	249,5;	0,0;	0,0
908,6115112304688;	257,0;	0,0;	0,0
908,6923217773438;	260,75;	0,0;	0,0
908,7730712890625;	267,0;	0,0;	0,0
908,8538208007812;	217,0;	0,0;	0,0
908,9345092773438;	240,25;	0,0;	0,0
909,0151977539062;	241,0;	0,0;	0,0
909,0958251953125;	219,75;	0,0;	0,0
909,1764526367188;	243,5;	0,0;	0,0
909,257080078125;	251,0;	0,0;	0,0
909,337646484375;	256,5;	0,0;	0,0
909,418212890625;	263,0;	0,0;	0,0
909,4987182617188;	262,25;	0,0;	0,0
909,5792236328125;	239,25;	0,0;	0,0
909,65966796875;	245,0;	0,0;	0,0
909,7401733398438;	233,75;	0,0;	0,0
909,820556640625;	232,0;	0,0;	0,0
909,9010009765625;	227,5;	0,0;	0,0
909,9813842773438;	247,5;	0,0;	0,0
910,061767578125;	238,5;	0,0;	0,0
910,1420288085938;	253,75;	0,0;	0,0
910,222412109375;	235,5;	0,0;	0,0
910,3026733398438;	219,75;	0,0;	0,0
910,3829345703125;	245,75;	0,0;	0,0
910,4631958007812;	235,25;	0,0;	0,0
910,5433959960938;	239,25;	0,0;	0,0
910,6235961914062;	240,75;	0,0;	0,0
910,7037353515625;	240,25;	0,0;	0,0
910,783935546875;	227,75;	0,0;	0,0
910,864013671875;	233,0;	0,0;	0,0
910,944091796875;	227,0;	0,0;	0,0
911,024169921875;	229,75;	0,0;	0,0
911,104248046875;	234,5;	0,0;	0,0
911,1842651367188;	226,25;	0,0;	0,0
911,2642822265625;	239,5;	0,0;	0,0
911,3441772460938;	242,0;	0,0;	0,0
911,4241943359375;	230,75;	0,0;	0,0
911,5040893554688;	229,25;	0,0;	0,0
911,5840454101562;	237,5;	0,0;	0,0
911,6638793945312;	219,25;	0,0;	0,0
911,7437133789062;	241,5;	0,0;	0,0
911,8235473632812;	231,25;	0,0;	0,0
911,9033813476562;	224,5;	0,0;	0,0
911,983154296875;	238,75;	0,0;	0,0
912,0629272460938;	226,5;	0,0;	0,0
912,1426391601562;	233,75;	0,0;	0,0
912,2223510742188;	236,0;	0,0;	0,0
912,302001953125;	252,25;	0,0;	0,0
912,3817138671875;	239,75;	0,0;	0,0
912,4613037109375;	229,75;	0,0;	0,0
912,5409545898438;	232,25;	0,0;	0,0
912,6205444335938;	255,0;	0,0;	0,0
912,7000732421875;	218,5;	0,0;	0,0
912,7796630859375;	238,75;	0,0;	0,0
912,8590698242188;	231,25;	0,0;	0,0
912,9385986328125;	237,5;	0,0;	0,0
913,0181274414062;	223,5;	0,0;	0,0
913,0974731445312;	233,25;	0,0;	0,0
913,1769409179688;	252,25;	0,0;	0,0
913,2562866210938;	241,0;	0,0;	0,0
913,335693359375;	228,25;	0,0;	0,0
913,4149780273438;	249,25;	0,0;	0,0
913,494384765625;	223,0;	0,0;	0,0
913,5735473632812;	238,0;	0,0;	0,0
913,6528930664062;	226,0;	0,0;	0,0
913,7321166992188;	234,5;	0,0;	0,0
913,811279296875;	239,0;	0,0;	0,0
913,8905639648438;	222,5;	0,0;	0,0
913,9696655273438;	215,0;	0,0;	0,0
914,048828125;	226,0;	0,0;	0,0
914,1279296875;	235,75;	0,0;	0,0
914,20703125;	221,0;	0,0;	0,0
914,2861328125;	236,75;	0,0;	0,0
914,3651733398438;	243,0;	0,0;	0,0
914,4441528320312;	220,5;	0,0;	0,0
914,523193359375;	247,25;	0,0;	0,0
914,6021728515625;	231,5;	0,0;	0,0
914,68115234375;	220,75;	0,0;	0,0
914,7600708007812;	264,5;	0,0;	0,0
914,8389282226562;	237,75;	0,0;	0,0
914,9178466796875;	221,0;	0,0;	0,0
914,9967041015625;	244,25;	0,0;	0,0
915,0755004882812;	229,75;	0,0;	0,0
915,1543579101562;	246,75;	0,0;	0,0
915,2330932617188;	240,75;	0,0;	0,0
915,3118896484375;	234,5;	0,0;	0,0
915,3905639648438;	231,5;	0,0;	0,0
915,4692993164062;	235,25;	0,0;	0,0
915,5479736328125;	255,75;	0,0;	0,0
915,6266479492188;	230,25;	0,0;	0,0
915,7052612304688;	248,25;	0,0;	0,0
915,7838745117188;	240,75;	0,0;	0,0
915,8624877929688;	232,5;	0,0;	0,0
915,9409790039062;	224,75;	0,0;	0,0
916,01953125;	212,0;	0,0;	0,0
916,0980834960938;	225,0;	0,0;	0,0
916,1765747070312;	242,25;	0,0;	0,0
916,2550048828125;	218,25;	0,0;	0,0
916,3334350585938;	243,25;	0,0;	0,0
916,411865234375;	233,5;	0,0;	0,0
916,4901733398438;	221,0;	0,0;	0,0
916,568603515625;	247,5;	0,0;	0,0
916,6469116210938;	243,0;	0,0;	0,0
916,7252807617188;	247,0;	0,0;	0,0
916,803466796875;	231,75;	0,0;	0,0
916,8818359375;	241,0;	0,0;	0,0
916,9600219726562;	239,25;	0,0;	0,0
917,0382690429688;	239,5;	0,0;	0,0
917,1163940429688;	234,5;	0,0;	0,0
917,1946411132812;	215,25;	0,0;	0,0
917,272705078125;	238,5;	0,0;	0,0
917,350830078125;	221,0;	0,0;	0,0
917,428955078125;	223,75;	0,0;	0,0
917,507080078125;	225,75;	0,0;	0,0
917,5850830078125;	231,0;	0,0;	0,0
917,6630859375;	236,25;	0,0;	0,0
917,7410888671875;	238,0;	0,0;	0,0
917,819091796875;	234,25;	0,0;	0,0
917,8970336914062;	235,25;	0,0;	0,0
917,9749145507812;	231,5;	0,0;	0,0
918,0528564453125;	238,5;	0,0;	0,0
918,1307373046875;	226,0;	0,0;	0,0
918,2085571289062;	224,5;	0,0;	0,0
918,286376953125;	240,0;	0,0;	0,0
918,3641357421875;	232,25;	0,0;	0,0
918,4419555664062;	238,75;	0,0;	0,0
918,5197143554688;	234,5;	0,0;	0,0
918,597412109375;	223,75;	0,0;	0,0
918,6751098632812;	221,5;	0,0;	0,0
918,7528076171875;	225,5;	0,0;	0,0
918,8304443359375;	238,25;	0,0;	0,0
918,9080810546875;	259,75;	0,0;	0,0
918,9856567382812;	212,75;	0,0;	0,0
919,0632934570312;	239,25;	0,0;	0,0
919,1408081054688;	243,25;	0,0;	0,0
919,2183227539062;	230,5;	0,0;	0,0
919,2958374023438;	229,75;	0,0;	0,0
919,373291015625;	211,25;	0,0;	0,0
919,4507446289062;	237,0;	0,0;	0,0
919,5281982421875;	233,5;	0,0;	0,0
919,6056518554688;	232,75;	0,0;	0,0
919,6830444335938;	233,25;	0,0;	0,0
919,7603759765625;	225,0;	0,0;	0,0
919,837646484375;	219,5;	0,0;	0,0
919,9149780273438;	236,75;	0,0;	0,0
919,9921875;	226,25;	0,0;	0,0
920,0695190429688;	243,5;	0,0;	0,0
920,1466674804688;	217,5;	0,0;	0,0
920,2239990234375;	239,25;	0,0;	0,0
920,3010864257812;	229,25;	0,0;	0,0
920,3783569335938;	229,5;	0,0;	0,0
920,4553833007812;	224,75;	0,0;	0,0
920,5325927734375;	211,25;	0,0;	0,0
920,609619140625;	237,5;	0,0;	0,0
920,6866455078125;	242,5;	0,0;	0,0
920,763671875;	216,75;	0,0;	0,0
920,8406982421875;	219,25;	0,0;	0,0
920,9176635742188;	227,5;	0,0;	0,0
920,99462890625;	221,25;	0,0;	0,0
921,0715942382812;	235,75;	0,0;	0,0
921,1485595703125;	232,25;	0,0;	0,0
921,2254028320312;	228,5;	0,0;	0,0
921,30224609375;	235,25;	0,0;	0,0
921,3790893554688;	228,5;	0,0;	0,0
921,4559326171875;	245,25;	0,0;	0,0
921,53271484375;	225,5;	0,0;	0,0
921,6094970703125;	235,25;	0,0;	0,0
921,6862182617188;	220,5;	0,0;	0,0
921,7628784179688;	219,75;	0,0;	0,0
921,839599609375;	208,5;	0,0;	0,0
921,9163208007812;	225,75;	0,0;	0,0
921,992919921875;	233,0;	0,0;	0,0
922,0695190429688;	237,75;	0,0;	0,0
922,1461181640625;	228,25;	0,0;	0,0
922,2227172851562;	229,75;	0,0;	0,0
922,2992553710938;	240,75;	0,0;	0,0
922,375732421875;	229,5;	0,0;	0,0
922,4522094726562;	237,25;	0,0;	0,0
922,5286865234375;	238,0;	0,0;	0,0
922,6051025390625;	213,75;	0,0;	0,0
922,6815795898438;	221,25;	0,0;	0,0
922,7579345703125;	246,25;	0,0;	0,0
922,8342895507812;	234,0;	0,0;	0,0
922,9107055664062;	258,0;	0,0;	0,0
922,9869995117188;	233,25;	0,0;	0,0
923,063232421875;	222,0;	0,0;	0,0
923,1394653320312;	233,0;	0,0;	0,0
923,2158203125;	235,0;	0,0;	0,0
923,2919311523438;	216,0;	0,0;	0,0
923,3682250976562;	214,0;	0,0;	0,0
923,4442749023438;	243,5;	0,0;	0,0
923,5205688476562;	226,0;	0,0;	0,0
923,5966186523438;	223,5;	0,0;	0,0
923,6727294921875;	220,0;	0,0;	0,0
923,748779296875;	239,5;	0,0;	0,0
923,8248291015625;	227,25;	0,0;	0,0
923,9008178710938;	236,0;	0,0;	0,0
923,976806640625;	253,75;	0,0;	0,0
924,0527954101562;	251,0;	0,0;	0,0
924,128662109375;	228,25;	0,0;	0,0
924,2046508789062;	226,0;	0,0;	0,0
924,2805786132812;	236,5;	0,0;	0,0
924,3564453125;	237,75;	0,0;	0,0
924,4322509765625;	226,5;	0,0;	0,0
924,5081176757812;	223,0;	0,0;	0,0
924,5838623046875;	211,5;	0,0;	0,0
924,65966796875;	237,75;	0,0;	0,0
924,7353515625;	234,75;	0,0;	0,0
924,8111572265625;	240,75;	0,0;	0,0
924,8868408203125;	218,5;	0,0;	0,0
924,9624633789062;	244,75;	0,0;	0,0
925,0381469726562;	243,75;	0,0;	0,0
925,11376953125;	236,25;	0,0;	0,0
925,1893920898438;	242,75;	0,0;	0,0
925,2649536132812;	252,25;	0,0;	0,0
925,3404541015625;	240,25;	0,0;	0,0
925,416015625;	239,25;	0,0;	0,0
925,4915161132812;	242,0;	0,0;	0,0
925,5669555664062;	252,75;	0,0;	0,0
925,6423950195312;	256,5;	0,0;	0,0
925,7178955078125;	253,5;	0,0;	0,0
925,793212890625;	275,5;	0,0;	0,0
925,8685913085938;	290,0;	0,0;	0,0
925,9439697265625;	327,25;	0,0;	0,0
926,0193481445312;	289,25;	0,0;	0,0
926,0946044921875;	339,25;	0,0;	0,0
926,1698608398438;	368,25;	0,0;	0,0
926,2451171875;	368,5;	0,0;	0,0
926,3203735351562;	388,5;	0,0;	0,0
926,3955078125;	385,0;	0,0;	0,0
926,470703125;	370,5;	0,0;	0,0
926,5458374023438;	388,5;	0,0;	0,0
926,6209716796875;	0,0;	0,0;	0,0
