-0.5	1.0
Integration time [ms]:	1.05
Averaging Nr. [scans]:1
Smoothing Nr. [pixels]:0
Data measured with spectrometer [name]:b'1703276U8'
Wave	;Sample	;Dark	;Reference	;Scope	
[nm]	;[counts]	;[counts]	;[counts]	
 
400,41888427734375;	251,25;	0,0;	0,0
400,4754333496094;	285,25;	0,0;	0,0
400,5319519042969;	535,0;	0,0;	0,0
400,5885009765625;	865,25;	0,0;	0,0
400,6449890136719;	375,0;	0,0;	0,0
400,7015075683594;	265,0;	0,0;	0,0
400,75799560546875;	273,0;	0,0;	0,0
400,8144836425781;	282,0;	0,0;	0,0
400,8709716796875;	237,5;	0,0;	0,0
400,92742919921875;	264,0;	0,0;	0,0
400,98388671875;	280,0;	0,0;	0,0
401,04034423828125;	340,5;	0,0;	0,0
401,09674072265625;	240,0;	0,0;	0,0
401,1531677246094;	236,75;	0,0;	0,0
401,2095947265625;	248,5;	0,0;	0,0
401,2659912109375;	244,5;	0,0;	0,0
401,3223876953125;	232,25;	0,0;	0,0
401,3787841796875;	238,5;	0,0;	0,0
401,4351806640625;	275,75;	0,0;	0,0
401,4915466308594;	330,25;	0,0;	0,0
401,54791259765625;	319,75;	0,0;	0,0
401,604248046875;	239,0;	0,0;	0,0
401,66058349609375;	255,75;	0,0;	0,0
401,7169189453125;	242,25;	0,0;	0,0
401,77325439453125;	264,5;	0,0;	0,0
401,8295593261719;	265,75;	0,0;	0,0
401,8858642578125;	264,5;	0,0;	0,0
401,942138671875;	243,75;	0,0;	0,0
401,9984436035156;	231,5;	0,0;	0,0
402,0547180175781;	248,75;	0,0;	0,0
402,1109619140625;	233,25;	0,0;	0,0
402,1672058105469;	262,75;	0,0;	0,0
402,22344970703125;	366,75;	0,0;	0,0
402,2796936035156;	341,75;	0,0;	0,0
402,3359375;	252,75;	0,0;	0,0
402,39215087890625;	224,0;	0,0;	0,0
402,44830322265625;	251,75;	0,0;	0,0
402,5045166015625;	276,25;	0,0;	0,0
402,5606994628906;	284,25;	0,0;	0,0
402,6168518066406;	253,75;	0,0;	0,0
402,6730041503906;	241,5;	0,0;	0,0
402,7291564941406;	239,75;	0,0;	0,0
402,7853088378906;	254,5;	0,0;	0,0
402,8414611816406;	230,0;	0,0;	0,0
402,8975830078125;	249,25;	0,0;	0,0
402,9537048339844;	279,25;	0,0;	0,0
403,0097961425781;	316,25;	0,0;	0,0
403,0658874511719;	515,75;	0,0;	0,0
403,1219787597656;	910,0;	0,0;	0,0
403,1780700683594;	550,5;	0,0;	0,0
403,234130859375;	296,5;	0,0;	0,0
403,2901916503906;	427,5;	0,0;	0,0
403,34625244140625;	720,25;	0,0;	0,0
403,40228271484375;	532,5;	0,0;	0,0
403,45831298828125;	438,75;	0,0;	0,0
403,51434326171875;	572,25;	0,0;	0,0
403,5703430175781;	300,75;	0,0;	0,0
403,6263122558594;	271,0;	0,0;	0,0
403,68231201171875;	255,75;	0,0;	0,0
403,7383117675781;	258,25;	0,0;	0,0
403,79425048828125;	239,5;	0,0;	0,0
403,8501892089844;	247,75;	0,0;	0,0
403,9061584472656;	239,0;	0,0;	0,0
403,96209716796875;	266,25;	0,0;	0,0
404,0180358886719;	267,5;	0,0;	0,0
404,0739440917969;	282,25;	0,0;	0,0
404,1298828125;	306,25;	0,0;	0,0
404,1857604980469;	340,0;	0,0;	0,0
404,24163818359375;	302,5;	0,0;	0,0
404,2975158691406;	278,25;	0,0;	0,0
404,3533935546875;	305,5;	0,0;	0,0
404,4092712402344;	417,0;	0,0;	0,0
404,4651184082031;	643,5;	0,0;	0,0
404,5209655761719;	891,25;	0,0;	0,0
404,5768127441406;	2046,0;	0,0;	0,0
404,6325988769531;	4744,75;	0,0;	0,0
404,68841552734375;	1980,5;	0,0;	0,0
404,7442321777344;	444,75;	0,0;	0,0
404,8000183105469;	392,5;	0,0;	0,0
404,8558349609375;	308,0;	0,0;	0,0
404,9115905761719;	289,25;	0,0;	0,0
404,96734619140625;	262,25;	0,0;	0,0
405,0231018066406;	272,25;	0,0;	0,0
405,078857421875;	239,75;	0,0;	0,0
405,1345520019531;	272,5;	0,0;	0,0
405,1902770996094;	244,0;	0,0;	0,0
405,2460021972656;	275,5;	0,0;	0,0
405,30169677734375;	291,5;	0,0;	0,0
405,3573913574219;	257,75;	0,0;	0,0
405,4130859375;	255,25;	0,0;	0,0
405,4687805175781;	293,0;	0,0;	0,0
405,5244445800781;	301,75;	0,0;	0,0
405,580078125;	301,25;	0,0;	0,0
405,6357116699219;	291,25;	0,0;	0,0
405,6913757324219;	245,0;	0,0;	0,0
405,74700927734375;	260,0;	0,0;	0,0
405,8025817871094;	332,75;	0,0;	0,0
405,85821533203125;	376,5;	0,0;	0,0
405,913818359375;	288,0;	0,0;	0,0
405,96942138671875;	295,0;	0,0;	0,0
406,02496337890625;	292,5;	0,0;	0,0
406,0805358886719;	285,25;	0,0;	0,0
406,1361083984375;	285,25;	0,0;	0,0
406,191650390625;	314,0;	0,0;	0,0
406,2471618652344;	413,5;	0,0;	0,0
406,3027038574219;	762,25;	0,0;	0,0
406,3582458496094;	1820,0;	0,0;	0,0
406,4137268066406;	4039,5;	0,0;	0,0
406,4692077636719;	1380,5;	0,0;	0,0
406,5246887207031;	358,75;	0,0;	0,0
406,5802001953125;	304,0;	0,0;	0,0
406,6356506347656;	287,0;	0,0;	0,0
406,69110107421875;	332,25;	0,0;	0,0
406,74658203125;	417,75;	0,0;	0,0
406,8019714355469;	438,75;	0,0;	0,0
406,857421875;	434,5;	0,0;	0,0
406,912841796875;	312,0;	0,0;	0,0
406,96826171875;	285,5;	0,0;	0,0
407,0236511230469;	321,25;	0,0;	0,0
407,0790710449219;	413,25;	0,0;	0,0
407,1344299316406;	803,75;	0,0;	0,0
407,1897888183594;	2362,0;	0,0;	0,0
407,24517822265625;	3451,75;	0,0;	0,0
407,3005065917969;	630,5;	0,0;	0,0
407,3558654785156;	309,5;	0,0;	0,0
407,4111633300781;	341,25;	0,0;	0,0
407,46649169921875;	343,0;	0,0;	0,0
407,5218200683594;	321,75;	0,0;	0,0
407,5771179199219;	306,75;	0,0;	0,0
407,6324157714844;	321,75;	0,0;	0,0
407,68768310546875;	424,0;	0,0;	0,0
407,7429504394531;	402,0;	0,0;	0,0
407,7981872558594;	325,25;	0,0;	0,0
407,85345458984375;	301,25;	0,0;	0,0
407,9086608886719;	319,25;	0,0;	0,0
407,96392822265625;	314,0;	0,0;	0,0
408,0191650390625;	334,0;	0,0;	0,0
408,0743408203125;	323,0;	0,0;	0,0
408,12957763671875;	279,0;	0,0;	0,0
408,18475341796875;	252,5;	0,0;	0,0
408,23992919921875;	273,0;	0,0;	0,0
408,29510498046875;	268,5;	0,0;	0,0
408,35028076171875;	278,5;	0,0;	0,0
408,4054260253906;	307,5;	0,0;	0,0
408,4605712890625;	364,25;	0,0;	0,0
408,51568603515625;	438,5;	0,0;	0,0
408,57080078125;	414,25;	0,0;	0,0
408,6259460449219;	304,25;	0,0;	0,0
408,6810302734375;	270,25;	0,0;	0,0
408,73614501953125;	273,5;	0,0;	0,0
408,79119873046875;	259,25;	0,0;	0,0
408,8462829589844;	259,0;	0,0;	0,0
408,9013366699219;	265,0;	0,0;	0,0
408,9563903808594;	261,0;	0,0;	0,0
409,0114440917969;	238,25;	0,0;	0,0
409,0664367675781;	241,5;	0,0;	0,0
409,1214904785156;	260,5;	0,0;	0,0
409,1764831542969;	276,5;	0,0;	0,0
409,2314758300781;	277,5;	0,0;	0,0
409,2864990234375;	274,5;	0,0;	0,0
409,3414611816406;	273,75;	0,0;	0,0
409,39642333984375;	232,25;	0,0;	0,0
409,451416015625;	278,75;	0,0;	0,0
409,50634765625;	274,25;	0,0;	0,0
409,5613098144531;	277,75;	0,0;	0,0
409,6162414550781;	310,25;	0,0;	0,0
409,6711730957031;	299,0;	0,0;	0,0
409,72607421875;	293,75;	0,0;	0,0
409,781005859375;	287,0;	0,0;	0,0
409,83587646484375;	285,75;	0,0;	0,0
409,8907470703125;	321,0;	0,0;	0,0
409,94561767578125;	276,0;	0,0;	0,0
410,0005187988281;	281,75;	0,0;	0,0
410,05535888671875;	280,5;	0,0;	0,0
410,1101989746094;	296,25;	0,0;	0,0
410,1650390625;	314,5;	0,0;	0,0
410,2198486328125;	285,5;	0,0;	0,0
410,2746887207031;	268,25;	0,0;	0,0
410,3294677734375;	262,25;	0,0;	0,0
410,3842468261719;	274,0;	0,0;	0,0
410,43902587890625;	285,75;	0,0;	0,0
410,4938049316406;	273,75;	0,0;	0,0
410,548583984375;	291,5;	0,0;	0,0
410,60333251953125;	273,0;	0,0;	0,0
410,6580810546875;	297,5;	0,0;	0,0
410,7127990722656;	323,25;	0,0;	0,0
410,7675476074219;	373,25;	0,0;	0,0
410,8222351074219;	457,25;	0,0;	0,0
410,876953125;	310,5;	0,0;	0,0
410,931640625;	299,75;	0,0;	0,0
410,986328125;	325,5;	0,0;	0,0
411,041015625;	396,0;	0,0;	0,0
411,095703125;	304,0;	0,0;	0,0
411,15032958984375;	267,75;	0,0;	0,0
411,2049865722656;	254,75;	0,0;	0,0
411,2596130371094;	269,25;	0,0;	0,0
411,3142395019531;	287,5;	0,0;	0,0
411,3688659667969;	301,5;	0,0;	0,0
411,4234619140625;	284,75;	0,0;	0,0
411,4780578613281;	351,75;	0,0;	0,0
411,53265380859375;	339,0;	0,0;	0,0
411,58721923828125;	265,25;	0,0;	0,0
411,64178466796875;	256,25;	0,0;	0,0
411,6963195800781;	263,25;	0,0;	0,0
411,7508544921875;	258,25;	0,0;	0,0
411,805419921875;	309,0;	0,0;	0,0
411,8598937988281;	519,5;	0,0;	0,0
411,9144287109375;	925,0;	0,0;	0,0
411,96893310546875;	389,5;	0,0;	0,0
412,0234375;	302,0;	0,0;	0,0
412,0779113769531;	317,0;	0,0;	0,0
412,13238525390625;	277,25;	0,0;	0,0
412,1868591308594;	293,0;	0,0;	0,0
412,2413330078125;	339,25;	0,0;	0,0
412,2957458496094;	308,0;	0,0;	0,0
412,3501892089844;	296,5;	0,0;	0,0
412,4046325683594;	278,0;	0,0;	0,0
412,45904541015625;	281,5;	0,0;	0,0
412,5134582519531;	243,5;	0,0;	0,0
412,56781005859375;	274,5;	0,0;	0,0
412,6222229003906;	331,25;	0,0;	0,0
412,6766052246094;	355,5;	0,0;	0,0
412,73095703125;	319,25;	0,0;	0,0
412,7853088378906;	380,25;	0,0;	0,0
412,83966064453125;	446,25;	0,0;	0,0
412,8940124511719;	254,5;	0,0;	0,0
412,94830322265625;	282,75;	0,0;	0,0
413,0025939941406;	270,5;	0,0;	0,0
413,0569152832031;	285,0;	0,0;	0,0
413,1112060546875;	285,5;	0,0;	0,0
413,1654968261719;	528,25;	0,0;	0,0
413,2197570800781;	1349,25;	0,0;	0,0
413,2740173339844;	2044,75;	0,0;	0,0
413,3282775878906;	628,0;	0,0;	0,0
413,3825378417969;	413,75;	0,0;	0,0
413,436767578125;	356,5;	0,0;	0,0
413,4909973144531;	534,5;	0,0;	0,0
413,5451965332031;	576,25;	0,0;	0,0
413,5993957519531;	301,5;	0,0;	0,0
413,65362548828125;	304,25;	0,0;	0,0
413,7077941894531;	343,75;	0,0;	0,0
413,761962890625;	377,25;	0,0;	0,0
413,8161315917969;	292,0;	0,0;	0,0
413,87030029296875;	263,75;	0,0;	0,0
413,9244079589844;	273,0;	0,0;	0,0
413,97857666015625;	285,75;	0,0;	0,0
414,0326843261719;	289,0;	0,0;	0,0
414,0867919921875;	267,0;	0,0;	0,0
414,1408996582031;	284,25;	0,0;	0,0
414,1949462890625;	286,0;	0,0;	0,0
414,2490539550781;	328,25;	0,0;	0,0
414,3031311035156;	457,5;	0,0;	0,0
414,357177734375;	1023,0;	0,0;	0,0
414,4112548828125;	2567,5;	0,0;	0,0
414,46527099609375;	2337,5;	0,0;	0,0
414,5193176269531;	397,5;	0,0;	0,0
414,5733337402344;	293,25;	0,0;	0,0
414,6273498535156;	290,5;	0,0;	0,0
414,6813659667969;	304,25;	0,0;	0,0
414,7353515625;	283,25;	0,0;	0,0
414,7893371582031;	359,75;	0,0;	0,0
414,8432922363281;	394,0;	0,0;	0,0
414,89727783203125;	292,25;	0,0;	0,0
414,95123291015625;	317,0;	0,0;	0,0
415,0051574707031;	348,5;	0,0;	0,0
415,05908203125;	298,75;	0,0;	0,0
415,1130065917969;	308,5;	0,0;	0,0
415,16693115234375;	326,0;	0,0;	0,0
415,2208251953125;	346,0;	0,0;	0,0
415,27471923828125;	336,75;	0,0;	0,0
415,32861328125;	333,25;	0,0;	0,0
415,3824768066406;	387,75;	0,0;	0,0
415,43634033203125;	599,5;	0,0;	0,0
415,49017333984375;	768,0;	0,0;	0,0
415,54400634765625;	645,75;	0,0;	0,0
415,59783935546875;	362,0;	0,0;	0,0
415,65167236328125;	352,75;	0,0;	0,0
415,7054748535156;	554,25;	0,0;	0,0
415,75927734375;	535,0;	0,0;	0,0
415,81304931640625;	405,75;	0,0;	0,0
415,8668518066406;	411,0;	0,0;	0,0
415,9206237792969;	369,75;	0,0;	0,0
415,974365234375;	331,5;	0,0;	0,0
416,02813720703125;	298,5;	0,0;	0,0
416,0818786621094;	276,75;	0,0;	0,0
416,1355895996094;	288,0;	0,0;	0,0
416,1893005371094;	277,25;	0,0;	0,0
416,2430114746094;	265,25;	0,0;	0,0
416,2967224121094;	249,25;	0,0;	0,0
416,35040283203125;	260,25;	0,0;	0,0
416,4040832519531;	277,0;	0,0;	0,0
416,457763671875;	264,5;	0,0;	0,0
416,51141357421875;	266,5;	0,0;	0,0
416,5650634765625;	275,0;	0,0;	0,0
416,6186828613281;	280,5;	0,0;	0,0
416,6723327636719;	249,5;	0,0;	0,0
416,7259521484375;	248,75;	0,0;	0,0
416,779541015625;	270,25;	0,0;	0,0
416,8331298828125;	292,0;	0,0;	0,0
416,88671875;	284,25;	0,0;	0,0
416,9403076171875;	269,75;	0,0;	0,0
416,99383544921875;	270,75;	0,0;	0,0
417,04742431640625;	281,5;	0,0;	0,0
417,1009826660156;	324,0;	0,0;	0,0
417,15447998046875;	389,5;	0,0;	0,0
417,2080383300781;	373,25;	0,0;	0,0
417,2615661621094;	403,75;	0,0;	0,0
417,3150329589844;	381,25;	0,0;	0,0
417,3685607910156;	338,0;	0,0;	0,0
417,4220275878906;	299,25;	0,0;	0,0
417,47552490234375;	309,5;	0,0;	0,0
417,5289611816406;	377,75;	0,0;	0,0
417,5824279785156;	466,5;	0,0;	0,0
417,6358642578125;	519,0;	0,0;	0,0
417,6893310546875;	396,0;	0,0;	0,0
417,74273681640625;	352,75;	0,0;	0,0
417,7961730957031;	341,75;	0,0;	0,0
417,84954833984375;	324,75;	0,0;	0,0
417,9029541015625;	282,0;	0,0;	0,0
417,9563293457031;	292,0;	0,0;	0,0
418,0096740722656;	287,25;	0,0;	0,0
418,0630798339844;	295,25;	0,0;	0,0
418,11639404296875;	367,25;	0,0;	0,0
418,1697692871094;	548,0;	0,0;	0,0
418,22308349609375;	978,0;	0,0;	0,0
418,2763977050781;	624,0;	0,0;	0,0
418,3297119140625;	342,5;	0,0;	0,0
418,3830261230469;	310,0;	0,0;	0,0
418,4363098144531;	299,0;	0,0;	0,0
418,4895935058594;	353,0;	0,0;	0,0
418,5428466796875;	513,5;	0,0;	0,0
418,59613037109375;	344,25;	0,0;	0,0
418,6493835449219;	381,0;	0,0;	0,0
418,70263671875;	608,0;	0,0;	0,0
418,755859375;	1243,0;	0,0;	0,0
418,80908203125;	1204,25;	0,0;	0,0
418,8622741699219;	934,0;	0,0;	0,0
418,9154968261719;	367,5;	0,0;	0,0
418,96868896484375;	305,0;	0,0;	0,0
419,0218811035156;	311,0;	0,0;	0,0
419,0750427246094;	322,0;	0,0;	0,0
419,1282043457031;	408,0;	0,0;	0,0
419,18133544921875;	768,25;	0,0;	0,0
419,2344970703125;	687,5;	0,0;	0,0
419,2876281738281;	299,5;	0,0;	0,0
419,3406982421875;	288,5;	0,0;	0,0
419,3938293457031;	277,5;	0,0;	0,0
419,4469299316406;	291,5;	0,0;	0,0
419,4999694824219;	304,25;	0,0;	0,0
419,5530700683594;	405,75;	0,0;	0,0
419,60614013671875;	458,75;	0,0;	0,0
419,6592102050781;	434,25;	0,0;	0,0
419,7122497558594;	383,25;	0,0;	0,0
419,7652893066406;	341,5;	0,0;	0,0
419,8183288574219;	566,75;	0,0;	0,0
419,8713073730469;	1163,25;	0,0;	0,0
419,9243469238281;	1495,5;	0,0;	0,0
419,9773254394531;	1540,5;	0,0;	0,0
420,03033447265625;	424,75;	0,0;	0,0
420,0832824707031;	340,25;	0,0;	0,0
420,1362609863281;	488,5;	0,0;	0,0
420,1892395019531;	929,75;	0,0;	0,0
420,2421569824219;	2330,25;	0,0;	0,0
420,29510498046875;	1442,75;	0,0;	0,0
420,3480529785156;	341,5;	0,0;	0,0
420,40093994140625;	364,25;	0,0;	0,0
420,453857421875;	480,25;	0,0;	0,0
420,5067138671875;	318,0;	0,0;	0,0
420,5596008300781;	275,75;	0,0;	0,0
420,6124572753906;	290,75;	0,0;	0,0
420,66534423828125;	288,0;	0,0;	0,0
420,7181701660156;	313,5;	0,0;	0,0
420,7710266113281;	318,5;	0,0;	0,0
420,8238525390625;	291,75;	0,0;	0,0
420,8766784667969;	292,25;	0,0;	0,0
420,9294738769531;	318,5;	0,0;	0,0
420,9822998046875;	289,25;	0,0;	0,0
421,03509521484375;	388,75;	0,0;	0,0
421,0878601074219;	663,75;	0,0;	0,0
421,1406555175781;	385,5;	0,0;	0,0
421,1933898925781;	264,25;	0,0;	0,0
421,24615478515625;	271,0;	0,0;	0,0
421,2988586425781;	269,75;	0,0;	0,0
421,35162353515625;	283,75;	0,0;	0,0
421,4043273925781;	327,75;	0,0;	0,0
421,45703125;	304,5;	0,0;	0,0
421,5097351074219;	278,5;	0,0;	0,0
421,56243896484375;	312,75;	0,0;	0,0
421,6151123046875;	390,25;	0,0;	0,0
421,66778564453125;	463,25;	0,0;	0,0
421,7204284667969;	349,25;	0,0;	0,0
421,7730712890625;	383,25;	0,0;	0,0
421,8257141113281;	422,75;	0,0;	0,0
421,8783264160156;	348,5;	0,0;	0,0
421,9309387207031;	403,5;	0,0;	0,0
421,9835205078125;	698,0;	0,0;	0,0
422,0361328125;	476,0;	0,0;	0,0
422,0887145996094;	357,75;	0,0;	0,0
422,14129638671875;	314,25;	0,0;	0,0
422,19384765625;	323,25;	0,0;	0,0
422,2464294433594;	537,5;	0,0;	0,0
422,2989501953125;	602,0;	0,0;	0,0
422,35150146484375;	339,25;	0,0;	0,0
422,4040222167969;	365,0;	0,0;	0,0
422,45654296875;	483,5;	0,0;	0,0
422,509033203125;	533,25;	0,0;	0,0
422,5615234375;	573,0;	0,0;	0,0
422,614013671875;	1021,5;	0,0;	0,0
422,66650390625;	2314,5;	0,0;	0,0
422,71893310546875;	5410,75;	0,0;	0,0
422,7713928222656;	2880,0;	0,0;	0,0
422,8238525390625;	1261,0;	0,0;	0,0
422,8762512207031;	469,25;	0,0;	0,0
422,9286804199219;	374,75;	0,0;	0,0
422,9811096191406;	345,25;	0,0;	0,0
423,0334777832031;	314,0;	0,0;	0,0
423,08587646484375;	281,0;	0,0;	0,0
423,1382141113281;	287,0;	0,0;	0,0
423,19061279296875;	283,25;	0,0;	0,0
423,24298095703125;	307,5;	0,0;	0,0
423,2953186035156;	346,5;	0,0;	0,0
423,3476257324219;	518,5;	0,0;	0,0
423,3999938964844;	886,5;	0,0;	0,0
423,4522705078125;	662,5;	0,0;	0,0
423,5046081542969;	383,75;	0,0;	0,0
423,556884765625;	486,25;	0,0;	0,0
423,60919189453125;	1013,25;	0,0;	0,0
423,6614685058594;	1551,75;	0,0;	0,0
423,7137145996094;	493,75;	0,0;	0,0
423,7659912109375;	337,75;	0,0;	0,0
423,8182373046875;	368,0;	0,0;	0,0
423,8704528808594;	433,0;	0,0;	0,0
423,92266845703125;	550,25;	0,0;	0,0
423,9748840332031;	483,25;	0,0;	0,0
424,027099609375;	390,25;	0,0;	0,0
424,07928466796875;	330,0;	0,0;	0,0
424,1314697265625;	301,5;	0,0;	0,0
424,18365478515625;	253,5;	0,0;	0,0
424,2358093261719;	268,0;	0,0;	0,0
424,2879333496094;	268,5;	0,0;	0,0
424,340087890625;	272,5;	0,0;	0,0
424,3921813964844;	282,25;	0,0;	0,0
424,4443054199219;	253,25;	0,0;	0,0
424,4964294433594;	292,0;	0,0;	0,0
424,54852294921875;	330,75;	0,0;	0,0
424,6006164550781;	357,75;	0,0;	0,0
424,6526794433594;	322,5;	0,0;	0,0
424,70477294921875;	320,0;	0,0;	0,0
424,7568359375;	438,0;	0,0;	0,0
424,8088684082031;	553,75;	0,0;	0,0
424,8609313964844;	423,25;	0,0;	0,0
424,9129333496094;	354,25;	0,0;	0,0
424,9649353027344;	481,0;	0,0;	0,0
425,0169677734375;	849,0;	0,0;	0,0
425,0689697265625;	1938,25;	0,0;	0,0
425,1209411621094;	2510,5;	0,0;	0,0
425,17291259765625;	1109,5;	0,0;	0,0
425,2248840332031;	301,5;	0,0;	0,0
425,2768249511719;	268,0;	0,0;	0,0
425,3287658691406;	293,0;	0,0;	0,0
425,3807067871094;	277,75;	0,0;	0,0
425,4326171875;	391,75;	0,0;	0,0
425,48455810546875;	569,75;	0,0;	0,0
425,53643798828125;	324,5;	0,0;	0,0
425,58831787109375;	264,0;	0,0;	0,0
425,6401672363281;	290,25;	0,0;	0,0
425,69207763671875;	258,25;	0,0;	0,0
425,7439270019531;	269,25;	0,0;	0,0
425,7957763671875;	265,25;	0,0;	0,0
425,8476257324219;	310,0;	0,0;	0,0
425,8994445800781;	323,0;	0,0;	0,0
425,9512634277344;	423,5;	0,0;	0,0
426,0030822753906;	699,5;	0,0;	0,0
426,05487060546875;	1632,5;	0,0;	0,0
426,1066589355469;	3133,0;	0,0;	0,0
426,158447265625;	862,5;	0,0;	0,0
426,210205078125;	355,75;	0,0;	0,0
426,261962890625;	288,25;	0,0;	0,0
426,3136901855469;	268,25;	0,0;	0,0
426,3654479980469;	297,0;	0,0;	0,0
426,41717529296875;	295,25;	0,0;	0,0
426,4688720703125;	282,25;	0,0;	0,0
426,5205993652344;	278,5;	0,0;	0,0
426,572265625;	266,0;	0,0;	0,0
426,62396240234375;	263,0;	0,0;	0,0
426,6756286621094;	277,5;	0,0;	0,0
426,727294921875;	298,0;	0,0;	0,0
426,7789306640625;	305,25;	0,0;	0,0
426,83056640625;	359,0;	0,0;	0,0
426,8822021484375;	310,5;	0,0;	0,0
426,93377685546875;	305,75;	0,0;	0,0
426,98541259765625;	328,5;	0,0;	0,0
427,0370178222656;	425,5;	0,0;	0,0
427,0885925292969;	773,0;	0,0;	0,0
427,14019775390625;	1956,25;	0,0;	0,0
427,1917419433594;	4116,25;	0,0;	0,0
427,2433166503906;	4582,25;	0,0;	0,0
427,29486083984375;	630,75;	0,0;	0,0
427,34637451171875;	331,5;	0,0;	0,0
427,3979187011719;	316,5;	0,0;	0,0
427,4494323730469;	353,0;	0,0;	0,0
427,50091552734375;	416,0;	0,0;	0,0
427,55242919921875;	422,75;	0,0;	0,0
427,6039123535156;	268,75;	0,0;	0,0
427,6553955078125;	257,25;	0,0;	0,0
427,70684814453125;	250,5;	0,0;	0,0
427,75830078125;	265,5;	0,0;	0,0
427,80975341796875;	271,75;	0,0;	0,0
427,8612060546875;	264,75;	0,0;	0,0
427,91259765625;	246,5;	0,0;	0,0
427,9639587402344;	293,25;	0,0;	0,0
428,0154113769531;	270,25;	0,0;	0,0
428,0667724609375;	270,25;	0,0;	0,0
428,1181335449219;	276,25;	0,0;	0,0
428,1695251464844;	287,75;	0,0;	0,0
428,22088623046875;	458,0;	0,0;	0,0
428,272216796875;	890,0;	0,0;	0,0
428,32354736328125;	754,0;	0,0;	0,0
428,3748779296875;	360,5;	0,0;	0,0
428,42620849609375;	263,25;	0,0;	0,0
428,4775390625;	266,0;	0,0;	0,0
428,5288391113281;	291,0;	0,0;	0,0
428,5801086425781;	306,0;	0,0;	0,0
428,6313781738281;	293,25;	0,0;	0,0
428,6826477050781;	268,5;	0,0;	0,0
428,7339172363281;	261,0;	0,0;	0,0
428,78515625;	268,5;	0,0;	0,0
428,83636474609375;	278,5;	0,0;	0,0
428,8875732421875;	288,5;	0,0;	0,0
428,93878173828125;	330,25;	0,0;	0,0
428,989990234375;	483,5;	0,0;	0,0
429,04119873046875;	409,75;	0,0;	0,0
429,0923767089844;	294,25;	0,0;	0,0
429,1435241699219;	239,25;	0,0;	0,0
429,1947021484375;	292,0;	0,0;	0,0
429,2458190917969;	269,75;	0,0;	0,0
429,29693603515625;	286,25;	0,0;	0,0
429,34808349609375;	371,5;	0,0;	0,0
429,3992004394531;	612,5;	0,0;	0,0
429,4503173828125;	1313,0;	0,0;	0,0
429,50140380859375;	714,25;	0,0;	0,0
429,552490234375;	264,5;	0,0;	0,0
429,60357666015625;	258,75;	0,0;	0,0
429,6546325683594;	259,25;	0,0;	0,0
429,7056884765625;	271,5;	0,0;	0,0
429,7567138671875;	258,5;	0,0;	0,0
429,8077697753906;	280,25;	0,0;	0,0
429,8587951660156;	401,75;	0,0;	0,0
429,9097900390625;	612,0;	0,0;	0,0
429,9608154296875;	1248,75;	0,0;	0,0
430,01177978515625;	787,25;	0,0;	0,0
430,0627746582031;	310,0;	0,0;	0,0
430,1137390136719;	284,75;	0,0;	0,0
430,1646728515625;	291,5;	0,0;	0,0
430,2156677246094;	323,75;	0,0;	0,0
430,2666015625;	534,0;	0,0;	0,0
430,3175048828125;	611,0;	0,0;	0,0
430,3684387207031;	315,25;	0,0;	0,0
430,4193115234375;	266,75;	0,0;	0,0
430,4701843261719;	291,25;	0,0;	0,0
430,5210876464844;	284,5;	0,0;	0,0
430,57196044921875;	366,5;	0,0;	0,0
430,6228332519531;	357,0;	0,0;	0,0
430,6736755371094;	406,75;	0,0;	0,0
430,7245178222656;	750,0;	0,0;	0,0
430,77532958984375;	1819,75;	0,0;	0,0
430,826171875;	4813,75;	0,0;	0,0
430,8769836425781;	2486,5;	0,0;	0,0
430,92779541015625;	461,75;	0,0;	0,0
430,97857666015625;	428,5;	0,0;	0,0
431,0293273925781;	305,25;	0,0;	0,0
431,0801086425781;	295,25;	0,0;	0,0
431,1308898925781;	270,25;	0,0;	0,0
431,1816101074219;	252,75;	0,0;	0,0
431,23236083984375;	263,75;	0,0;	0,0
431,2830810546875;	243,0;	0,0;	0,0
431,33380126953125;	258,0;	0,0;	0,0
431,3844909667969;	267,0;	0,0;	0,0
431,4352111816406;	287,25;	0,0;	0,0
431,4858703613281;	380,25;	0,0;	0,0
431,53656005859375;	683,0;	0,0;	0,0
431,5871887207031;	557,5;	0,0;	0,0
431,63787841796875;	273,0;	0,0;	0,0
431,6885070800781;	252,5;	0,0;	0,0
431,7391052246094;	264,5;	0,0;	0,0
431,78973388671875;	278,5;	0,0;	0,0
431,84033203125;	289,25;	0,0;	0,0
431,8909606933594;	364,0;	0,0;	0,0
431,9415283203125;	339,75;	0,0;	0,0
431,99212646484375;	252,25;	0,0;	0,0
432,0426940917969;	272,75;	0,0;	0,0
432,0932312011719;	253,5;	0,0;	0,0
432,1437683105469;	272,0;	0,0;	0,0
432,1943054199219;	286,25;	0,0;	0,0
432,2448425292969;	285,0;	0,0;	0,0
432,29534912109375;	264,25;	0,0;	0,0
432,3458557128906;	280,25;	0,0;	0,0
432,3963623046875;	313,5;	0,0;	0,0
432,44683837890625;	353,0;	0,0;	0,0
432,497314453125;	646,0;	0,0;	0,0
432,5477600097656;	1427,5;	0,0;	0,0
432,59820556640625;	4154,5;	0,0;	0,0
432,6486511230469;	3638,75;	0,0;	0,0
432,6990966796875;	507,0;	0,0;	0,0
432,74951171875;	380,5;	0,0;	0,0
432,7999267578125;	302,25;	0,0;	0,0
432,8503112792969;	285,75;	0,0;	0,0
432,9006652832031;	271,25;	0,0;	0,0
432,9510498046875;	269,0;	0,0;	0,0
433,00140380859375;	246,25;	0,0;	0,0
433,0517883300781;	257,5;	0,0;	0,0
433,10211181640625;	271,75;	0,0;	0,0
433,1524658203125;	266,0;	0,0;	0,0
433,2027587890625;	247,5;	0,0;	0,0
433,2530822753906;	252,5;	0,0;	0,0
433,30340576171875;	234,25;	0,0;	0,0
433,3536682128906;	226,25;	0,0;	0,0
433,4039611816406;	248,5;	0,0;	0,0
433,4542541503906;	239,75;	0,0;	0,0
433,5044860839844;	256,25;	0,0;	0,0
433,55474853515625;	260,5;	0,0;	0,0
433,60498046875;	278,5;	0,0;	0,0
433,6551818847656;	305,75;	0,0;	0,0
433,7054138183594;	367,25;	0,0;	0,0
433,755615234375;	561,0;	0,0;	0,0
433,8058166503906;	296,25;	0,0;	0,0
433,8559875488281;	256,75;	0,0;	0,0
433,9061584472656;	274,25;	0,0;	0,0
433,9563293457031;	273,0;	0,0;	0,0
434,0064697265625;	258,0;	0,0;	0,0
434,056640625;	263,5;	0,0;	0,0
434,10675048828125;	258,25;	0,0;	0,0
434,1568603515625;	244,0;	0,0;	0,0
434,20697021484375;	248,0;	0,0;	0,0
434,2570495605469;	257,5;	0,0;	0,0
434,3071594238281;	245,75;	0,0;	0,0
434,35723876953125;	255,5;	0,0;	0,0
434,40728759765625;	283,5;	0,0;	0,0
434,4573669433594;	281,0;	0,0;	0,0
434,50738525390625;	259,75;	0,0;	0,0
434,55743408203125;	247,25;	0,0;	0,0
434,6074523925781;	250,75;	0,0;	0,0
434,657470703125;	269,75;	0,0;	0,0
434,70745849609375;	299,5;	0,0;	0,0
434,7574768066406;	255,25;	0,0;	0,0
434,8074645996094;	250,0;	0,0;	0,0
434,857421875;	260,25;	0,0;	0,0
434,90740966796875;	259,25;	0,0;	0,0
434,95733642578125;	245,25;	0,0;	0,0
435,00726318359375;	268,5;	0,0;	0,0
435,05718994140625;	273,5;	0,0;	0,0
435,1071472167969;	251,0;	0,0;	0,0
435,1570129394531;	278,0;	0,0;	0,0
435,2069396972656;	342,5;	0,0;	0,0
435,25677490234375;	332,75;	0,0;	0,0
435,3066711425781;	438,25;	0,0;	0,0
435,35650634765625;	352,0;	0,0;	0,0
435,4063720703125;	268,0;	0,0;	0,0
435,4562072753906;	244,25;	0,0;	0,0
435,50604248046875;	247,75;	0,0;	0,0
435,5558776855469;	260,0;	0,0;	0,0
435,60565185546875;	268,5;	0,0;	0,0
435,65545654296875;	268,0;	0,0;	0,0
435,70526123046875;	252,0;	0,0;	0,0
435,75506591796875;	252,75;	0,0;	0,0
435,8048095703125;	258,0;	0,0;	0,0
435,85455322265625;	275,25;	0,0;	0,0
435,9043273925781;	280,0;	0,0;	0,0
435,95404052734375;	248,0;	0,0;	0,0
436,0037841796875;	247,75;	0,0;	0,0
436,053466796875;	252,5;	0,0;	0,0
436,1031799316406;	258,0;	0,0;	0,0
436,1528625488281;	240,0;	0,0;	0,0
436,20257568359375;	237,5;	0,0;	0,0
436,2522277832031;	268,25;	0,0;	0,0
436,3019104003906;	256,75;	0,0;	0,0
436,3515625;	228,0;	0,0;	0,0
436,4011535644531;	252,5;	0,0;	0,0
436,4508056640625;	257,25;	0,0;	0,0
436,50042724609375;	245,0;	0,0;	0,0
436,5500183105469;	271,75;	0,0;	0,0
436,599609375;	253,0;	0,0;	0,0
436,6492004394531;	256,75;	0,0;	0,0
436,6987609863281;	255,0;	0,0;	0,0
436,7483215332031;	303,0;	0,0;	0,0
436,7978820800781;	322,75;	0,0;	0,0
436,847412109375;	266,5;	0,0;	0,0
436,8969421386719;	253,75;	0,0;	0,0
436,94647216796875;	284,5;	0,0;	0,0
436,9959716796875;	365,0;	0,0;	0,0
437,0455017089844;	318,75;	0,0;	0,0
437,094970703125;	256,25;	0,0;	0,0
437,1444396972656;	262,25;	0,0;	0,0
437,19390869140625;	254,75;	0,0;	0,0
437,2433776855469;	253,0;	0,0;	0,0
437,2928161621094;	263,75;	0,0;	0,0
437,3422546386719;	252,5;	0,0;	0,0
437,3916931152344;	277,0;	0,0;	0,0
437,4410705566406;	257,25;	0,0;	0,0
437,4905090332031;	289,0;	0,0;	0,0
437,53985595703125;	303,25;	0,0;	0,0
437,5892639160156;	367,75;	0,0;	0,0
437,63861083984375;	556,5;	0,0;	0,0
437,6879577636719;	296,5;	0,0;	0,0
437,7373046875;	270,0;	0,0;	0,0
437,7866516113281;	246,0;	0,0;	0,0
437,8359680175781;	247,75;	0,0;	0,0
437,8852844238281;	240,75;	0,0;	0,0
437,9346008300781;	264,25;	0,0;	0,0
437,98388671875;	255,0;	0,0;	0,0
438,0331726074219;	262,5;	0,0;	0,0
438,0824279785156;	275,25;	0,0;	0,0
438,1317138671875;	281,75;	0,0;	0,0
438,1809387207031;	340,0;	0,0;	0,0
438,2301940917969;	524,5;	0,0;	0,0
438,2794189453125;	993,75;	0,0;	0,0
438,3286437988281;	2381,5;	0,0;	0,0
438,37786865234375;	6143,25;	0,0;	0,0
438,42706298828125;	4050,5;	0,0;	0,0
438,4762268066406;	582,75;	0,0;	0,0
438,525390625;	402,25;	0,0;	0,0
438,5745849609375;	314,25;	0,0;	0,0
438,62371826171875;	268,5;	0,0;	0,0
438,6728210449219;	280,25;	0,0;	0,0
438,7220153808594;	282,25;	0,0;	0,0
438,7710876464844;	301,0;	0,0;	0,0
438,8202209472656;	320,0;	0,0;	0,0
438,8692932128906;	352,25;	0,0;	0,0
438,91839599609375;	296,5;	0,0;	0,0
438,96746826171875;	266,0;	0,0;	0,0
439,01654052734375;	250,5;	0,0;	0,0
439,0655822753906;	261,0;	0,0;	0,0
439,1146240234375;	278,5;	0,0;	0,0
439,1636962890625;	285,75;	0,0;	0,0
439,21270751953125;	260,0;	0,0;	0,0
439,26171875;	241,25;	0,0;	0,0
439,3106994628906;	256,0;	0,0;	0,0
439,3597106933594;	258,75;	0,0;	0,0
439,4086608886719;	252,25;	0,0;	0,0
439,4576416015625;	255,0;	0,0;	0,0
439,506591796875;	242,5;	0,0;	0,0
439,5555419921875;	264,5;	0,0;	0,0
439,6044921875;	271,75;	0,0;	0,0
439,6534118652344;	252,0;	0,0;	0,0
439,70233154296875;	234,5;	0,0;	0,0
439,7512512207031;	246,75;	0,0;	0,0
439,8001403808594;	227,75;	0,0;	0,0
439,8489990234375;	240,25;	0,0;	0,0
439,8978576660156;	257,5;	0,0;	0,0
439,94677734375;	257,75;	0,0;	0,0
439,9955749511719;	243,25;	0,0;	0,0
440,0444030761719;	264,75;	0,0;	0,0
440,0932312011719;	269,0;	0,0;	0,0
440,1420593261719;	278,25;	0,0;	0,0
440,19085693359375;	333,25;	0,0;	0,0
440,2396545410156;	259,5;	0,0;	0,0
440,2884521484375;	304,75;	0,0;	0,0
440,3372497558594;	361,0;	0,0;	0,0
440,385986328125;	627,0;	0,0;	0,0
440,4347229003906;	1225,0;	0,0;	0,0
440,48345947265625;	3266,75;	0,0;	0,0
440,5322265625;	3705,75;	0,0;	0,0
440,5809326171875;	541,5;	0,0;	0,0
440,629638671875;	299,0;	0,0;	0,0
440,6783447265625;	303,0;	0,0;	0,0
440,7270202636719;	283,25;	0,0;	0,0
440,77569580078125;	308,75;	0,0;	0,0
440,8243713378906;	350,75;	0,0;	0,0
440,8730163574219;	360,0;	0,0;	0,0
440,9216613769531;	300,0;	0,0;	0,0
440,9703063964844;	249,5;	0,0;	0,0
441,0188903808594;	234,75;	0,0;	0,0
441,0675354003906;	219,75;	0,0;	0,0
441,1160888671875;	261,5;	0,0;	0,0
441,1647033691406;	252,0;	0,0;	0,0
441,2132568359375;	248,75;	0,0;	0,0
441,2618408203125;	255,25;	0,0;	0,0
441,3103942871094;	278,25;	0,0;	0,0
441,35894775390625;	284,25;	0,0;	0,0
441,4075012207031;	360,5;	0,0;	0,0
441,45599365234375;	591,25;	0,0;	0,0
441,5044860839844;	1263,0;	0,0;	0,0
441,5530090332031;	2338,0;	0,0;	0,0
441,60150146484375;	654,0;	0,0;	0,0
441,64996337890625;	279,25;	0,0;	0,0
441,6984558105469;	260,0;	0,0;	0,0
441,7469177246094;	256,0;	0,0;	0,0
441,79534912109375;	262,0;	0,0;	0,0
441,8437805175781;	257,0;	0,0;	0,0
441,8922119140625;	250,0;	0,0;	0,0
441,9406433105469;	253,5;	0,0;	0,0
441,9890441894531;	251,0;	0,0;	0,0
442,03741455078125;	253,5;	0,0;	0,0
442,0858154296875;	231,0;	0,0;	0,0
442,1341552734375;	263,0;	0,0;	0,0
442,18255615234375;	267,75;	0,0;	0,0
442,2308654785156;	271,0;	0,0;	0,0
442,2792053222656;	324,75;	0,0;	0,0
442,3275146484375;	296,0;	0,0;	0,0
442,3758544921875;	253,5;	0,0;	0,0
442,4241638183594;	259,25;	0,0;	0,0
442,4724426269531;	272,0;	0,0;	0,0
442,520751953125;	274,75;	0,0;	0,0
442,5690002441406;	337,5;	0,0;	0,0
442,6172790527344;	287,25;	0,0;	0,0
442,66552734375;	315,5;	0,0;	0,0
442,7137756347656;	351,5;	0,0;	0,0
442,7619934082031;	566,75;	0,0;	0,0
442,8102111816406;	335,75;	0,0;	0,0
442,8583984375;	248,5;	0,0;	0,0
442,9066162109375;	246,75;	0,0;	0,0
442,9548034667969;	263,75;	0,0;	0,0
443,0029602050781;	289,25;	0,0;	0,0
443,0511169433594;	300,75;	0,0;	0,0
443,0992736816406;	333,25;	0,0;	0,0
443,1474304199219;	293,25;	0,0;	0,0
443,195556640625;	238,75;	0,0;	0,0
443,2436828613281;	267,5;	0,0;	0,0
443,2917785644531;	271,75;	0,0;	0,0
443,33984375;	303,0;	0,0;	0,0
443,3879699707031;	295,0;	0,0;	0,0
443,4360046386719;	291,25;	0,0;	0,0
443,48406982421875;	331,25;	0,0;	0,0
443,5321350097656;	483,75;	0,0;	0,0
443,5802001953125;	352,5;	0,0;	0,0
443,6282043457031;	306,0;	0,0;	0,0
443,6762390136719;	254,5;	0,0;	0,0
443,7242431640625;	246,5;	0,0;	0,0
443,7722473144531;	238,75;	0,0;	0,0
443,8202209472656;	241,25;	0,0;	0,0
443,86822509765625;	251,5;	0,0;	0,0
443,9161682128906;	256,75;	0,0;	0,0
443,964111328125;	257,75;	0,0;	0,0
444,0120544433594;	244,75;	0,0;	0,0
444,05999755859375;	241,0;	0,0;	0,0
444,10791015625;	276,75;	0,0;	0,0
444,15582275390625;	281,25;	0,0;	0,0
444,2037353515625;	345,75;	0,0;	0,0
444,2516174316406;	462,75;	0,0;	0,0
444,29949951171875;	456,0;	0,0;	0,0
444,34735107421875;	391,25;	0,0;	0,0
444,3952331542969;	280,0;	0,0;	0,0
444,4430236816406;	251,25;	0,0;	0,0
444,49090576171875;	233,25;	0,0;	0,0
444,5386962890625;	241,5;	0,0;	0,0
444,58648681640625;	245,0;	0,0;	0,0
444,6343078613281;	248,0;	0,0;	0,0
444,6820983886719;	259,5;	0,0;	0,0
444,7298583984375;	328,5;	0,0;	0,0
444,77764892578125;	390,75;	0,0;	0,0
444,82537841796875;	414,0;	0,0;	0,0
444,8731384277344;	267,0;	0,0;	0,0
444,9208679199219;	276,75;	0,0;	0,0
444,9685974121094;	239,75;	0,0;	0,0
445,0163269042969;	245,25;	0,0;	0,0
445,0639953613281;	246,5;	0,0;	0,0
445,1117248535156;	259,0;	0,0;	0,0
445,1593933105469;	268,75;	0,0;	0,0
445,2070617675781;	250,25;	0,0;	0,0
445,25469970703125;	249,0;	0,0;	0,0
445,3023376464844;	272,75;	0,0;	0,0
445,3499755859375;	276,5;	0,0;	0,0
445,3976135253906;	325,25;	0,0;	0,0
445,4452209472656;	392,0;	0,0;	0,0
445,4928283691406;	582,5;	0,0;	0,0
445,5404357910156;	501,75;	0,0;	0,0
445,5880126953125;	323,25;	0,0;	0,0
445,63555908203125;	293,5;	0,0;	0,0
445,6831359863281;	260,5;	0,0;	0,0
445,73065185546875;	276,75;	0,0;	0,0
445,7781982421875;	286,25;	0,0;	0,0
445,8257141113281;	288,0;	0,0;	0,0
445,87322998046875;	338,25;	0,0;	0,0
445,92071533203125;	473,25;	0,0;	0,0
445,9682312011719;	413,75;	0,0;	0,0
446,01568603515625;	278,0;	0,0;	0,0
446,06317138671875;	283,5;	0,0;	0,0
446,1106262207031;	288,5;	0,0;	0,0
446,1580810546875;	374,0;	0,0;	0,0
446,2055358886719;	427,25;	0,0;	0,0
446,2529602050781;	290,0;	0,0;	0,0
446,30035400390625;	250,75;	0,0;	0,0
446,3477478027344;	248,75;	0,0;	0,0
446,3951416015625;	253,0;	0,0;	0,0
446,4425354003906;	248,5;	0,0;	0,0
446,4898986816406;	265,0;	0,0;	0,0
446,5372619628906;	283,75;	0,0;	0,0
446,5846252441406;	295,25;	0,0;	0,0
446,6319580078125;	399,5;	0,0;	0,0
446,6792907714844;	622,75;	0,0;	0,0
446,7265625;	354,5;	0,0;	0,0
446,7738952636719;	276,25;	0,0;	0,0
446,8211669921875;	252,0;	0,0;	0,0
446,8684387207031;	267,25;	0,0;	0,0
446,91571044921875;	299,25;	0,0;	0,0
446,9629821777344;	345,75;	0,0;	0,0
447,0102233886719;	296,0;	0,0;	0,0
447,05743408203125;	265,5;	0,0;	0,0
447,10467529296875;	244,0;	0,0;	0,0
447,1518859863281;	244,5;	0,0;	0,0
447,1990966796875;	244,75;	0,0;	0,0
447,2463073730469;	256,0;	0,0;	0,0
447,2934875488281;	250,25;	0,0;	0,0
447,34063720703125;	245,0;	0,0;	0,0
447,3878173828125;	255,25;	0,0;	0,0
447,4349365234375;	223,75;	0,0;	0,0
447,4820861816406;	270,5;	0,0;	0,0
447,5292053222656;	307,0;	0,0;	0,0
447,5763244628906;	355,0;	0,0;	0,0
447,6234436035156;	517,0;	0,0;	0,0
447,6705322265625;	396,25;	0,0;	0,0
447,7176208496094;	262,75;	0,0;	0,0
447,7646789550781;	229,0;	0,0;	0,0
447,81170654296875;	234,0;	0,0;	0,0
447,8587951660156;	253,0;	0,0;	0,0
447,9057922363281;	246,0;	0,0;	0,0
447,95281982421875;	244,75;	0,0;	0,0
447,9998474121094;	285,0;	0,0;	0,0
448,0468444824219;	268,5;	0,0;	0,0
448,0938415527344;	270,0;	0,0;	0,0
448,1408386230469;	266,0;	0,0;	0,0
448,18780517578125;	322,25;	0,0;	0,0
448,2347412109375;	459,5;	0,0;	0,0
448,28167724609375;	395,75;	0,0;	0,0
448,3286437988281;	263,0;	0,0;	0,0
448,3755798339844;	268,0;	0,0;	0,0
448,4224853515625;	288,5;	0,0;	0,0
448,4693908691406;	327,25;	0,0;	0,0
448,51629638671875;	263,25;	0,0;	0,0
448,56317138671875;	262,5;	0,0;	0,0
448,61004638671875;	269,0;	0,0;	0,0
448,6568908691406;	255,25;	0,0;	0,0
448,7037353515625;	239,5;	0,0;	0,0
448,7505798339844;	238,0;	0,0;	0,0
448,79742431640625;	230,75;	0,0;	0,0
448,8442077636719;	249,5;	0,0;	0,0
448,8910217285156;	238,0;	0,0;	0,0
448,9378356933594;	259,75;	0,0;	0,0
448,98455810546875;	261,0;	0,0;	0,0
449,0313415527344;	275,75;	0,0;	0,0
449,0780944824219;	262,25;	0,0;	0,0
449,1248474121094;	250,0;	0,0;	0,0
449,1716003417969;	237,75;	0,0;	0,0
449,21832275390625;	249,0;	0,0;	0,0
449,2650146484375;	248,25;	0,0;	0,0
449,31170654296875;	236,0;	0,0;	0,0
449,3583984375;	317,5;	0,0;	0,0
449,40509033203125;	314,25;	0,0;	0,0
449,4517517089844;	455,5;	0,0;	0,0
449,4984130859375;	538,5;	0,0;	0,0
449,5450744628906;	283,5;	0,0;	0,0
449,5917053222656;	254,75;	0,0;	0,0
449,6383361816406;	247,5;	0,0;	0,0
449,6849670410156;	253,75;	0,0;	0,0
449,7315673828125;	256,75;	0,0;	0,0
449,77813720703125;	237,75;	0,0;	0,0
449,8247375488281;	256,25;	0,0;	0,0
449,8713073730469;	243,75;	0,0;	0,0
449,9178466796875;	248,75;	0,0;	0,0
449,96441650390625;	258,75;	0,0;	0,0
450,0109558105469;	245,25;	0,0;	0,0
450,05743408203125;	270,0;	0,0;	0,0
450,1039733886719;	243,25;	0,0;	0,0
450,15045166015625;	240,75;	0,0;	0,0
450,1969299316406;	241,75;	0,0;	0,0
450,243408203125;	235,5;	0,0;	0,0
450,2899169921875;	253,5;	0,0;	0,0
450,33636474609375;	239,0;	0,0;	0,0
450,3828125;	246,25;	0,0;	0,0
450,4292297363281;	247,75;	0,0;	0,0
450,4756774902344;	240,25;	0,0;	0,0
450,5220947265625;	241,75;	0,0;	0,0
450,5684509277344;	259,0;	0,0;	0,0
450,6148376464844;	245,5;	0,0;	0,0
450,6612243652344;	229,75;	0,0;	0,0
450,7076110839844;	236,5;	0,0;	0,0
450,75396728515625;	227,75;	0,0;	0,0
450,8003234863281;	242,5;	0,0;	0,0
450,84661865234375;	250,25;	0,0;	0,0
450,8929748535156;	244,75;	0,0;	0,0
450,93927001953125;	234,75;	0,0;	0,0
450,985595703125;	248,25;	0,0;	0,0
451,0318603515625;	249,25;	0,0;	0,0
451,078125;	233,0;	0,0;	0,0
451,1243896484375;	230,25;	0,0;	0,0
451,1706848144531;	226,25;	0,0;	0,0
451,2168884277344;	229,0;	0,0;	0,0
451,26312255859375;	237,0;	0,0;	0,0
451,309326171875;	240,5;	0,0;	0,0
451,35552978515625;	246,0;	0,0;	0,0
451,4017333984375;	234,0;	0,0;	0,0
451,44793701171875;	230,5;	0,0;	0,0
451,4941101074219;	230,5;	0,0;	0,0
451,540283203125;	240,25;	0,0;	0,0
451,58642578125;	229,0;	0,0;	0,0
451,632568359375;	259,0;	0,0;	0,0
451,6787109375;	265,75;	0,0;	0,0
451,7248229980469;	253,25;	0,0;	0,0
451,77093505859375;	249,5;	0,0;	0,0
451,8170166015625;	226,5;	0,0;	0,0
451,8631286621094;	232,0;	0,0;	0,0
451,9092102050781;	258,75;	0,0;	0,0
451,95526123046875;	228,5;	0,0;	0,0
452,0013427734375;	246,75;	0,0;	0,0
452,04736328125;	248,25;	0,0;	0,0
452,0933837890625;	222,0;	0,0;	0,0
452,139404296875;	253,75;	0,0;	0,0
452,1854248046875;	243,75;	0,0;	0,0
452,2314147949219;	232,75;	0,0;	0,0
452,2773742675781;	259,5;	0,0;	0,0
452,3233642578125;	270,0;	0,0;	0,0
452,36932373046875;	256,75;	0,0;	0,0
452,4152526855469;	243,75;	0,0;	0,0
452,4612121582031;	271,75;	0,0;	0,0
452,5071105957031;	283,25;	0,0;	0,0
452,55303955078125;	314,5;	0,0;	0,0
452,5989685058594;	278,25;	0,0;	0,0
452,64483642578125;	263,25;	0,0;	0,0
452,6907653808594;	278,25;	0,0;	0,0
452,7366027832031;	302,5;	0,0;	0,0
452,7825012207031;	369,25;	0,0;	0,0
452,8283386230469;	475,5;	0,0;	0,0
452,8741455078125;	794,5;	0,0;	0,0
452,9200134277344;	575,5;	0,0;	0,0
452,9658203125;	270,75;	0,0;	0,0
453,0116271972656;	277,0;	0,0;	0,0
453,0574035644531;	269,25;	0,0;	0,0
453,10321044921875;	307,25;	0,0;	0,0
453,1489562988281;	335,75;	0,0;	0,0
453,1947326660156;	267,25;	0,0;	0,0
453,240478515625;	256,0;	0,0;	0,0
453,2862243652344;	242,5;	0,0;	0,0
453,3319091796875;	253,0;	0,0;	0,0
453,3776550292969;	248,75;	0,0;	0,0
453,42333984375;	249,5;	0,0;	0,0
453,4690246582031;	239,0;	0,0;	0,0
453,51470947265625;	260,25;	0,0;	0,0
453,56036376953125;	234,5;	0,0;	0,0
453,6060485839844;	241,25;	0,0;	0,0
453,65167236328125;	241,75;	0,0;	0,0
453,69732666015625;	223,0;	0,0;	0,0
453,7429504394531;	230,0;	0,0;	0,0
453,7885437011719;	221,75;	0,0;	0,0
453,8341369628906;	237,0;	0,0;	0,0
453,8797302246094;	236,75;	0,0;	0,0
453,92535400390625;	247,0;	0,0;	0,0
453,9709167480469;	220,5;	0,0;	0,0
454,0164794921875;	240,25;	0,0;	0,0
454,0619812011719;	233,0;	0,0;	0,0
454,1075134277344;	251,25;	0,0;	0,0
454,1530456542969;	247,0;	0,0;	0,0
454,1985778808594;	253,75;	0,0;	0,0
454,24407958984375;	238,5;	0,0;	0,0
454,28955078125;	242,5;	0,0;	0,0
454,3350524902344;	240,5;	0,0;	0,0
454,3804931640625;	233,0;	0,0;	0,0
454,42596435546875;	224,75;	0,0;	0,0
454,4713439941406;	248,75;	0,0;	0,0
454,516845703125;	238,25;	0,0;	0,0
454,5622253417969;	232,75;	0,0;	0,0
454,6076354980469;	236,5;	0,0;	0,0
454,6530456542969;	260,25;	0,0;	0,0
454,69842529296875;	249,25;	0,0;	0,0
454,7438049316406;	261,5;	0,0;	0,0
454,7891540527344;	275,75;	0,0;	0,0
454,8345031738281;	288,75;	0,0;	0,0
454,8798522949219;	237,0;	0,0;	0,0
454,9252014160156;	267,0;	0,0;	0,0
454,97052001953125;	263,25;	0,0;	0,0
455,01580810546875;	253,25;	0,0;	0,0
455,06109619140625;	232,75;	0,0;	0,0
455,10638427734375;	236,0;	0,0;	0,0
455,1516418457031;	250,5;	0,0;	0,0
455,1969299316406;	215,0;	0,0;	0,0
455,2421569824219;	243,0;	0,0;	0,0
455,28741455078125;	270,25;	0,0;	0,0
455,3326416015625;	282,5;	0,0;	0,0
455,37786865234375;	327,25;	0,0;	0,0
455,4230651855469;	380,5;	0,0;	0,0
455,46826171875;	297,5;	0,0;	0,0
455,5133972167969;	234,5;	0,0;	0,0
455,55859375;	265,75;	0,0;	0,0
455,603759765625;	290,5;	0,0;	0,0
455,6488952636719;	301,75;	0,0;	0,0
455,69403076171875;	230,25;	0,0;	0,0
455,7391357421875;	251,75;	0,0;	0,0
455,7842712402344;	254,25;	0,0;	0,0
455,8293762207031;	242,25;	0,0;	0,0
455,8744812011719;	245,25;	0,0;	0,0
455,9195251464844;	242,0;	0,0;	0,0
455,964599609375;	241,25;	0,0;	0,0
456,0096740722656;	239,5;	0,0;	0,0
456,0547180175781;	244,0;	0,0;	0,0
456,0997619628906;	238,5;	0,0;	0,0
456,144775390625;	236,0;	0,0;	0,0
456,18975830078125;	239,0;	0,0;	0,0
456,23480224609375;	239,75;	0,0;	0,0
456,27978515625;	236,0;	0,0;	0,0
456,3247375488281;	244,25;	0,0;	0,0
456,3697204589844;	238,5;	0,0;	0,0
456,4146728515625;	248,0;	0,0;	0,0
456,4595947265625;	244,75;	0,0;	0,0
456,5045471191406;	252,0;	0,0;	0,0
456,5494384765625;	258,5;	0,0;	0,0
456,5943908691406;	231,75;	0,0;	0,0
456,6392517089844;	265,5;	0,0;	0,0
456,6841125488281;	226,25;	0,0;	0,0
456,72900390625;	228,5;	0,0;	0,0
456,77386474609375;	235,25;	0,0;	0,0
456,8186950683594;	266,75;	0,0;	0,0
456,8635559082031;	245,25;	0,0;	0,0
456,90838623046875;	225,5;	0,0;	0,0
456,9532165527344;	240,75;	0,0;	0,0
456,9980163574219;	245,0;	0,0;	0,0
457,04278564453125;	229,75;	0,0;	0,0
457,08758544921875;	234,0;	0,0;	0,0
457,13238525390625;	240,25;	0,0;	0,0
457,1771240234375;	238,75;	0,0;	0,0
457,2218933105469;	236,5;	0,0;	0,0
457,2666320800781;	231,75;	0,0;	0,0
457,31134033203125;	247,5;	0,0;	0,0
457,3560485839844;	227,5;	0,0;	0,0
457,4007568359375;	228,75;	0,0;	0,0
457,4454345703125;	230,25;	0,0;	0,0
457,4901428222656;	242,25;	0,0;	0,0
457,5347900390625;	253,25;	0,0;	0,0
457,5794677734375;	219,75;	0,0;	0,0
457,62408447265625;	232,25;	0,0;	0,0
457,668701171875;	238,0;	0,0;	0,0
457,7133483886719;	224,5;	0,0;	0,0
457,7579345703125;	222,0;	0,0;	0,0
457,80255126953125;	244,25;	0,0;	0,0
457,84710693359375;	223,0;	0,0;	0,0
457,8916931152344;	233,0;	0,0;	0,0
457,936279296875;	237,75;	0,0;	0,0
457,9808349609375;	245,5;	0,0;	0,0
458,025390625;	244,5;	0,0;	0,0
458,0699157714844;	234,0;	0,0;	0,0
458,1144104003906;	246,5;	0,0;	0,0
458,158935546875;	262,75;	0,0;	0,0
458,20343017578125;	265,25;	0,0;	0,0
458,2479248046875;	255,25;	0,0;	0,0
458,2923889160156;	240,5;	0,0;	0,0
458,33685302734375;	248,75;	0,0;	0,0
458,3813171386719;	257,75;	0,0;	0,0
458,4257507324219;	272,0;	0,0;	0,0
458,47015380859375;	231,0;	0,0;	0,0
458,51458740234375;	250,25;	0,0;	0,0
458,5589904785156;	261,25;	0,0;	0,0
458,60333251953125;	284,75;	0,0;	0,0
458,6477966308594;	243,5;	0,0;	0,0
458,6921081542969;	234,5;	0,0;	0,0
458,73651123046875;	235,5;	0,0;	0,0
458,78082275390625;	245,5;	0,0;	0,0
458,8251953125;	236,25;	0,0;	0,0
458,8695068359375;	214,75;	0,0;	0,0
458,9137878417969;	229,25;	0,0;	0,0
458,9580993652344;	221,25;	0,0;	0,0
459,00238037109375;	232,25;	0,0;	0,0
459,04669189453125;	235,0;	0,0;	0,0
459,0909423828125;	237,75;	0,0;	0,0
459,13519287109375;	232,5;	0,0;	0,0
459,179443359375;	253,5;	0,0;	0,0
459,22369384765625;	265,0;	0,0;	0,0
459,26788330078125;	268,5;	0,0;	0,0
459,3121032714844;	280,25;	0,0;	0,0
459,3562927246094;	244,25;	0,0;	0,0
459,4004821777344;	240,25;	0,0;	0,0
459,4446716308594;	238,0;	0,0;	0,0
459,48883056640625;	244,25;	0,0;	0,0
459,5329895019531;	243,5;	0,0;	0,0
459,5771179199219;	245,0;	0,0;	0,0
459,6212463378906;	243,0;	0,0;	0,0
459,66534423828125;	231,0;	0,0;	0,0
459,7094421386719;	271,5;	0,0;	0,0
459,7535705566406;	244,75;	0,0;	0,0
459,7976379394531;	250,0;	0,0;	0,0
459,8417053222656;	243,5;	0,0;	0,0
459,8857727050781;	242,0;	0,0;	0,0
459,9298095703125;	233,75;	0,0;	0,0
459,9738464355469;	223,25;	0,0;	0,0
460,01788330078125;	239,5;	0,0;	0,0
460,0618896484375;	253,25;	0,0;	0,0
460,1058654785156;	235,0;	0,0;	0,0
460,14990234375;	236,25;	0,0;	0,0
460,1938781738281;	270,0;	0,0;	0,0
460,2378234863281;	251,75;	0,0;	0,0
460,28179931640625;	308,0;	0,0;	0,0
460,32574462890625;	330,5;	0,0;	0,0
460,3696594238281;	248,0;	0,0;	0,0
460,41357421875;	220,5;	0,0;	0,0
460,4574890136719;	222,75;	0,0;	0,0
460,50140380859375;	232,0;	0,0;	0,0
460,5452575683594;	240,75;	0,0;	0,0
460,58917236328125;	229,5;	0,0;	0,0
460,63299560546875;	235,25;	0,0;	0,0
460,6768798828125;	257,25;	0,0;	0,0
460,7206726074219;	259,0;	0,0;	0,0
460,7645263671875;	301,75;	0,0;	0,0
460,808349609375;	252,75;	0,0;	0,0
460,8521728515625;	225,0;	0,0;	0,0
460,89593505859375;	228,0;	0,0;	0,0
460,93975830078125;	229,0;	0,0;	0,0
460,9834899902344;	230,25;	0,0;	0,0
461,0272521972656;	254,25;	0,0;	0,0
461,0710144042969;	246,5;	0,0;	0,0
461,11474609375;	263,0;	0,0;	0,0
461,158447265625;	272,5;	0,0;	0,0
461,2021789550781;	256,0;	0,0;	0,0
461,2458801269531;	226,5;	0,0;	0,0
461,28955078125;	224,25;	0,0;	0,0
461,333251953125;	254,0;	0,0;	0,0
461,3769226074219;	244,25;	0,0;	0,0
461,4205627441406;	232,5;	0,0;	0,0
461,4642028808594;	232,75;	0,0;	0,0
461,5078430175781;	244,5;	0,0;	0,0
461,55145263671875;	243,5;	0,0;	0,0
461,5950622558594;	225,5;	0,0;	0,0
461,638671875;	222,25;	0,0;	0,0
461,6822509765625;	244,25;	0,0;	0,0
461,7257995605469;	255,25;	0,0;	0,0
461,7693786621094;	246,25;	0,0;	0,0
461,81292724609375;	241,75;	0,0;	0,0
461,85650634765625;	254,0;	0,0;	0,0
461,8999938964844;	255,0;	0,0;	0,0
461,94354248046875;	264,5;	0,0;	0,0
461,9870300292969;	235,5;	0,0;	0,0
462,0304870605469;	245,25;	0,0;	0,0
462,0740051269531;	227,5;	0,0;	0,0
462,1174621582031;	241,0;	0,0;	0,0
462,1609191894531;	239,25;	0,0;	0,0
462,2043762207031;	243,25;	0,0;	0,0
462,247802734375;	230,0;	0,0;	0,0
462,2912292480469;	232,75;	0,0;	0,0
462,3346252441406;	235,0;	0,0;	0,0
462,3780517578125;	259,0;	0,0;	0,0
462,4214172363281;	250,0;	0,0;	0,0
462,4648132324219;	238,0;	0,0;	0,0
462,5081787109375;	237,75;	0,0;	0,0
462,551513671875;	235,5;	0,0;	0,0
462,5948791503906;	238,0;	0,0;	0,0
462,6382141113281;	243,0;	0,0;	0,0
462,6815185546875;	241,0;	0,0;	0,0
462,7248229980469;	237,75;	0,0;	0,0
462,76812744140625;	250,25;	0,0;	0,0
462,8113708496094;	261,5;	0,0;	0,0
462,85467529296875;	227,5;	0,0;	0,0
462,8979187011719;	216,5;	0,0;	0,0
462,9411926269531;	238,25;	0,0;	0,0
462,9844055175781;	246,5;	0,0;	0,0
463,0276184082031;	242,75;	0,0;	0,0
463,0708312988281;	232,25;	0,0;	0,0
463,1140441894531;	243,75;	0,0;	0,0
463,1572265625;	233,0;	0,0;	0,0
463,2004089355469;	245,75;	0,0;	0,0
463,24359130859375;	244,25;	0,0;	0,0
463,2867431640625;	257,5;	0,0;	0,0
463,32989501953125;	255,75;	0,0;	0,0
463,3730163574219;	236,0;	0,0;	0,0
463,4161376953125;	231,75;	0,0;	0,0
463,459228515625;	245,0;	0,0;	0,0
463,5023498535156;	250,25;	0,0;	0,0
463,5454406738281;	247,75;	0,0;	0,0
463,5885009765625;	250,0;	0,0;	0,0
463,6315612792969;	244,25;	0,0;	0,0
463,67462158203125;	256,0;	0,0;	0,0
463,7176513671875;	255,5;	0,0;	0,0
463,76068115234375;	268,25;	0,0;	0,0
463,8036804199219;	255,5;	0,0;	0,0
463,8467102050781;	241,0;	0,0;	0,0
463,8896789550781;	237,0;	0,0;	0,0
463,93267822265625;	222,75;	0,0;	0,0
463,9756164550781;	234,5;	0,0;	0,0
464,0186462402344;	244,75;	0,0;	0,0
464,0615234375;	241,5;	0,0;	0,0
464,1044921875;	241,0;	0,0;	0,0
464,14739990234375;	249,25;	0,0;	0,0
464,1903076171875;	232,25;	0,0;	0,0
464,2331848144531;	258,25;	0,0;	0,0
464,2760925292969;	260,75;	0,0;	0,0
464,3189697265625;	237,5;	0,0;	0,0
464,3618469238281;	244,5;	0,0;	0,0
464,4046936035156;	257,0;	0,0;	0,0
464,4475402832031;	247,5;	0,0;	0,0
464,4903869628906;	263,75;	0,0;	0,0
464,5331726074219;	241,75;	0,0;	0,0
464,57598876953125;	231,75;	0,0;	0,0
464,6188049316406;	243,0;	0,0;	0,0
464,66156005859375;	257,25;	0,0;	0,0
464,704345703125;	256,75;	0,0;	0,0
464,7471008300781;	276,25;	0,0;	0,0
464,78985595703125;	258,25;	0,0;	0,0
464,83258056640625;	233,5;	0,0;	0,0
464,8752746582031;	235,5;	0,0;	0,0
464,9179992675781;	237,25;	0,0;	0,0
464,9606628417969;	260,0;	0,0;	0,0
465,00341796875;	245,5;	0,0;	0,0
465,0460510253906;	252,25;	0,0;	0,0
465,0887145996094;	236,25;	0,0;	0,0
465,1313781738281;	247,0;	0,0;	0,0
465,17401123046875;	250,5;	0,0;	0,0
465,2166748046875;	237,25;	0,0;	0,0
465,2592468261719;	253,0;	0,0;	0,0
465,3018798828125;	236,0;	0,0;	0,0
465,344482421875;	275,0;	0,0;	0,0
465,3870544433594;	258,75;	0,0;	0,0
465,42962646484375;	269,5;	0,0;	0,0
465,4721984863281;	316,0;	0,0;	0,0
465,5147399902344;	242,5;	0,0;	0,0
465,5572814941406;	245,0;	0,0;	0,0
465,59979248046875;	251,25;	0,0;	0,0
465,6423034667969;	233,75;	0,0;	0,0
465,684814453125;	242,5;	0,0;	0,0
465,727294921875;	218,75;	0,0;	0,0
465,769775390625;	245,5;	0,0;	0,0
465,812255859375;	240,0;	0,0;	0,0
465,8547058105469;	245,75;	0,0;	0,0
465,89715576171875;	237,25;	0,0;	0,0
465,9395751953125;	221,75;	0,0;	0,0
465,98199462890625;	225,75;	0,0;	0,0
466,0243835449219;	230,5;	0,0;	0,0
466,0667724609375;	242,25;	0,0;	0,0
466,1091613769531;	253,0;	0,0;	0,0
466,15155029296875;	243,75;	0,0;	0,0
466,19390869140625;	255,75;	0,0;	0,0
466,2362365722656;	246,25;	0,0;	0,0
466,2785949707031;	246,5;	0,0;	0,0
466,3209228515625;	239,0;	0,0;	0,0
466,36322021484375;	239,25;	0,0;	0,0
466,4055480957031;	255,75;	0,0;	0,0
466,44781494140625;	247,5;	0,0;	0,0
466,4900817871094;	247,25;	0,0;	0,0
466,5323791503906;	248,5;	0,0;	0,0
466,5746154785156;	253,5;	0,0;	0,0
466,61688232421875;	263,25;	0,0;	0,0
466,6590881347656;	287,25;	0,0;	0,0
466,7013244628906;	309,5;	0,0;	0,0
466,7435302734375;	307,25;	0,0;	0,0
466,78570556640625;	291,75;	0,0;	0,0
466,8278503417969;	309,0;	0,0;	0,0
466,87005615234375;	286,0;	0,0;	0,0
466,9122009277344;	262,75;	0,0;	0,0
466,9543762207031;	269,0;	0,0;	0,0
466,9964904785156;	257,25;	0,0;	0,0
467,03863525390625;	246,0;	0,0;	0,0
467,08074951171875;	250,5;	0,0;	0,0
467,1228332519531;	249,25;	0,0;	0,0
467,1649169921875;	259,5;	0,0;	0,0
467,20703125;	277,5;	0,0;	0,0
467,24908447265625;	249,0;	0,0;	0,0
467,2911071777344;	245,75;	0,0;	0,0
467,33319091796875;	275,5;	0,0;	0,0
467,3752136230469;	265,25;	0,0;	0,0
467,4172058105469;	247,75;	0,0;	0,0
467,459228515625;	247,5;	0,0;	0,0
467,501220703125;	243,75;	0,0;	0,0
467,5431823730469;	253,75;	0,0;	0,0
467,5851745605469;	262,0;	0,0;	0,0
467,62713623046875;	246,75;	0,0;	0,0
467,6690979003906;	230,75;	0,0;	0,0
467,7110290527344;	246,25;	0,0;	0,0
467,7529602050781;	240,25;	0,0;	0,0
467,79486083984375;	252,5;	0,0;	0,0
467,8367614746094;	267,75;	0,0;	0,0
467,8786315917969;	290,75;	0,0;	0,0
467,9205322265625;	298,5;	0,0;	0,0
467,9623718261719;	270,0;	0,0;	0,0
468,0042419433594;	255,25;	0,0;	0,0
468,04608154296875;	238,75;	0,0;	0,0
468,087890625;	244,25;	0,0;	0,0
468,1297302246094;	262,75;	0,0;	0,0
468,1715393066406;	239,5;	0,0;	0,0
468,21331787109375;	245,5;	0,0;	0,0
468,2550964355469;	240,75;	0,0;	0,0
468,296875;	244,5;	0,0;	0,0
468,3386535644531;	244,75;	0,0;	0,0
468,38037109375;	241,75;	0,0;	0,0
468,422119140625;	234,25;	0,0;	0,0
468,4638366699219;	243,75;	0,0;	0,0
468,50555419921875;	240,25;	0,0;	0,0
468,5472412109375;	240,75;	0,0;	0,0
468,58892822265625;	229,75;	0,0;	0,0
468,630615234375;	228,5;	0,0;	0,0
468,6722717285156;	236,25;	0,0;	0,0
468,71392822265625;	242,5;	0,0;	0,0
468,75555419921875;	249,25;	0,0;	0,0
468,7972106933594;	235,25;	0,0;	0,0
468,83880615234375;	235,75;	0,0;	0,0
468,88043212890625;	250,0;	0,0;	0,0
468,9219665527344;	259,25;	0,0;	0,0
468,9635925292969;	238,5;	0,0;	0,0
469,0051574707031;	248,5;	0,0;	0,0
469,0467224121094;	248,25;	0,0;	0,0
469,0882263183594;	266,5;	0,0;	0,0
469,1297912597656;	251,0;	0,0;	0,0
469,1712951660156;	266,75;	0,0;	0,0
469,2127990722656;	270,75;	0,0;	0,0
469,2543029785156;	260,5;	0,0;	0,0
469,2958068847656;	224,75;	0,0;	0,0
469,3372802734375;	222,0;	0,0;	0,0
469,3787536621094;	250,75;	0,0;	0,0
469,4201965332031;	241,25;	0,0;	0,0
469,4616394042969;	230,25;	0,0;	0,0
469,5030517578125;	255,75;	0,0;	0,0
469,54449462890625;	239,0;	0,0;	0,0
469,58587646484375;	235,25;	0,0;	0,0
469,6272888183594;	243,5;	0,0;	0,0
469,66864013671875;	247,0;	0,0;	0,0
469,7099914550781;	235,75;	0,0;	0,0
469,7513732910156;	230,5;	0,0;	0,0
469,7926940917969;	227,5;	0,0;	0,0
469,83404541015625;	265,75;	0,0;	0,0
469,8753356933594;	241,5;	0,0;	0,0
469,91668701171875;	252,25;	0,0;	0,0
469,95794677734375;	256,75;	0,0;	0,0
469,999267578125;	224,75;	0,0;	0,0
470,0404968261719;	246,25;	0,0;	0,0
470,0817565917969;	256,25;	0,0;	0,0
470,12298583984375;	238,5;	0,0;	0,0
470,16424560546875;	238,25;	0,0;	0,0
470,2054748535156;	241,75;	0,0;	0,0
470,2467041015625;	247,0;	0,0;	0,0
470,28790283203125;	234,5;	0,0;	0,0
470,3290710449219;	230,25;	0,0;	0,0
470,3702392578125;	259,5;	0,0;	0,0
470,41143798828125;	219,75;	0,0;	0,0
470,4526062011719;	255,5;	0,0;	0,0
470,49371337890625;	243,75;	0,0;	0,0
470,53485107421875;	260,5;	0,0;	0,0
470,5759582519531;	247,75;	0,0;	0,0
470,6170959472656;	251,25;	0,0;	0,0
470,6581726074219;	255,75;	0,0;	0,0
470,6992492675781;	294,25;	0,0;	0,0
470,7403259277344;	308,75;	0,0;	0,0
470,7814025878906;	265,75;	0,0;	0,0
470,8223876953125;	250,0;	0,0;	0,0
470,86346435546875;	260,75;	0,0;	0,0
470,90447998046875;	270,5;	0,0;	0,0
470,94549560546875;	250,75;	0,0;	0,0
470,9864807128906;	260,25;	0,0;	0,0
471,0274658203125;	257,5;	0,0;	0,0
471,0684509277344;	234,75;	0,0;	0,0
471,1094055175781;	229,25;	0,0;	0,0
471,15032958984375;	256,25;	0,0;	0,0
471,1912841796875;	230,0;	0,0;	0,0
471,23223876953125;	243,25;	0,0;	0,0
471,27313232421875;	228,25;	0,0;	0,0
471,3140563964844;	239,5;	0,0;	0,0
471,35491943359375;	236,0;	0,0;	0,0
471,39581298828125;	236,5;	0,0;	0,0
471,4366455078125;	234,5;	0,0;	0,0
471,4775390625;	237,5;	0,0;	0,0
471,51837158203125;	232,25;	0,0;	0,0
471,5592041015625;	247,5;	0,0;	0,0
471,60003662109375;	242,25;	0,0;	0,0
471,6408386230469;	230,25;	0,0;	0,0
471,6816101074219;	253,75;	0,0;	0,0
471,722412109375;	234,5;	0,0;	0,0
471,7631530761719;	235,75;	0,0;	0,0
471,8039245605469;	233,5;	0,0;	0,0
471,84466552734375;	216,0;	0,0;	0,0
471,88543701171875;	240,25;	0,0;	0,0
471,9261169433594;	226,75;	0,0;	0,0
471,9668884277344;	236,75;	0,0;	0,0
472,0075378417969;	233,75;	0,0;	0,0
472,0482177734375;	257,0;	0,0;	0,0
472,0888977050781;	245,0;	0,0;	0,0
472,1295471191406;	253,75;	0,0;	0,0
472,17022705078125;	230,75;	0,0;	0,0
472,21087646484375;	252,25;	0,0;	0,0
472,25146484375;	243,5;	0,0;	0,0
472,2920837402344;	239,0;	0,0;	0,0
472,33270263671875;	249,75;	0,0;	0,0
472,373291015625;	228,25;	0,0;	0,0
472,41387939453125;	233,0;	0,0;	0,0
472,4544372558594;	240,75;	0,0;	0,0
472,4949951171875;	213,0;	0,0;	0,0
472,5355529785156;	230,75;	0,0;	0,0
472,5760803222656;	221,5;	0,0;	0,0
472,6166076660156;	240,0;	0,0;	0,0
472,6571044921875;	253,25;	0,0;	0,0
472,6976013183594;	239,5;	0,0;	0,0
472,7380676269531;	261,25;	0,0;	0,0
472,7785339355469;	266,25;	0,0;	0,0
472,81903076171875;	254,5;	0,0;	0,0
472,85943603515625;	263,0;	0,0;	0,0
472,89990234375;	243,25;	0,0;	0,0
472,9402770996094;	234,0;	0,0;	0,0
472,980712890625;	245,0;	0,0;	0,0
473,0211181640625;	236,75;	0,0;	0,0
473,0614929199219;	242,0;	0,0;	0,0
473,1018981933594;	238,5;	0,0;	0,0
473,1422424316406;	257,5;	0,0;	0,0
473,1826171875;	239,0;	0,0;	0,0
473,2229309082031;	241,25;	0,0;	0,0
473,26324462890625;	240,0;	0,0;	0,0
473,3035888671875;	255,75;	0,0;	0,0
473,3439025878906;	246,75;	0,0;	0,0
473,3841552734375;	279,5;	0,0;	0,0
473,4244689941406;	253,0;	0,0;	0,0
473,4647216796875;	257,5;	0,0;	0,0
473,5049743652344;	253,75;	0,0;	0,0
473,54522705078125;	275,25;	0,0;	0,0
473,58544921875;	301,75;	0,0;	0,0
473,62567138671875;	273,5;	0,0;	0,0
473,6658935546875;	355,75;	0,0;	0,0
473,7060546875;	326,75;	0,0;	0,0
473,7462463378906;	245,5;	0,0;	0,0
473,7864074707031;	235,75;	0,0;	0,0
473,82659912109375;	246,25;	0,0;	0,0
473,8667297363281;	253,75;	0,0;	0,0
473,9068298339844;	228,25;	0,0;	0,0
473,9469909667969;	234,75;	0,0;	0,0
473,9870910644531;	233,25;	0,0;	0,0
474,0271911621094;	242,5;	0,0;	0,0
474,0672607421875;	261,75;	0,0;	0,0
474,1073303222656;	240,0;	0,0;	0,0
474,14739990234375;	241,25;	0,0;	0,0
474,18743896484375;	240,0;	0,0;	0,0
474,22747802734375;	249,25;	0,0;	0,0
474,26751708984375;	236,25;	0,0;	0,0
474,30755615234375;	239,0;	0,0;	0,0
474,3475646972656;	252,5;	0,0;	0,0
474,3875427246094;	232,5;	0,0;	0,0
474,4275207519531;	239,5;	0,0;	0,0
474,4674987792969;	251,5;	0,0;	0,0
474,5074462890625;	258,5;	0,0;	0,0
474,5473937988281;	267,25;	0,0;	0,0
474,5873107910156;	264,75;	0,0;	0,0
474,627197265625;	243,75;	0,0;	0,0
474,6671447753906;	244,75;	0,0;	0,0
474,7070007324219;	253,25;	0,0;	0,0
474,7469177246094;	247,5;	0,0;	0,0
474,7867431640625;	245,25;	0,0;	0,0
474,82666015625;	241,25;	0,0;	0,0
474,8664855957031;	248,25;	0,0;	0,0
474,9062805175781;	235,0;	0,0;	0,0
474,9461364746094;	237,75;	0,0;	0,0
474,98590087890625;	249,5;	0,0;	0,0
475,0257263183594;	227,0;	0,0;	0,0
475,0655212402344;	249,0;	0,0;	0,0
475,1053161621094;	258,5;	0,0;	0,0
475,1450500488281;	258,75;	0,0;	0,0
475,184814453125;	253,75;	0,0;	0,0
475,22454833984375;	236,0;	0,0;	0,0
475,2642517089844;	260,0;	0,0;	0,0
475,3039855957031;	243,25;	0,0;	0,0
475,34368896484375;	260,75;	0,0;	0,0
475,38336181640625;	258,75;	0,0;	0,0
475,42303466796875;	278,0;	0,0;	0,0
475,46270751953125;	255,5;	0,0;	0,0
475,5023498535156;	233,5;	0,0;	0,0
475,5419921875;	236,25;	0,0;	0,0
475,5816345214844;	245,25;	0,0;	0,0
475,6212158203125;	222,5;	0,0;	0,0
475,6608581542969;	244,25;	0,0;	0,0
475,7004089355469;	232,75;	0,0;	0,0
475,7400207519531;	235,0;	0,0;	0,0
475,7795715332031;	257,5;	0,0;	0,0
475,8191223144531;	233,25;	0,0;	0,0
475,8586730957031;	229,0;	0,0;	0,0
475,898193359375;	236,75;	0,0;	0,0
475,9377136230469;	234,0;	0,0;	0,0
475,9772033691406;	256,75;	0,0;	0,0
476,0167236328125;	251,0;	0,0;	0,0
476,0561828613281;	247,0;	0,0;	0,0
476,0956726074219;	267,25;	0,0;	0,0
476,1351318359375;	253,0;	0,0;	0,0
476,1745910644531;	255,25;	0,0;	0,0
476,2140197753906;	265,0;	0,0;	0,0
476,2534484863281;	261,0;	0,0;	0,0
476,2928466796875;	256,5;	0,0;	0,0
476,3322448730469;	237,5;	0,0;	0,0
476,3716125488281;	236,5;	0,0;	0,0
476,4110107421875;	257,5;	0,0;	0,0
476,4503479003906;	269,0;	0,0;	0,0
476,4897155761719;	261,75;	0,0;	0,0
476,52899169921875;	250,75;	0,0;	0,0
476,5683898925781;	277,25;	0,0;	0,0
476,607666015625;	236,25;	0,0;	0,0
476,64697265625;	244,0;	0,0;	0,0
476,6862487792969;	245,25;	0,0;	0,0
476,7255554199219;	251,75;	0,0;	0,0
476,7647705078125;	260,5;	0,0;	0,0
476,8040466308594;	251,5;	0,0;	0,0
476,8432922363281;	273,0;	0,0;	0,0
476,88250732421875;	220,0;	0,0;	0,0
476,9217224121094;	256,75;	0,0;	0,0
476,9609069824219;	247,25;	0,0;	0,0
477,0001220703125;	239,75;	0,0;	0,0
477,0392761230469;	245,5;	0,0;	0,0
477,0784606933594;	253,5;	0,0;	0,0
477,1176452636719;	241,75;	0,0;	0,0
477,1567687988281;	239,0;	0,0;	0,0
477,1958923339844;	239,25;	0,0;	0,0
477,2350158691406;	255,25;	0,0;	0,0
477,27410888671875;	234,75;	0,0;	0,0
477,3132019042969;	251,25;	0,0;	0,0
477,352294921875;	249,5;	0,0;	0,0
477,3913879394531;	245,5;	0,0;	0,0
477,4303894042969;	236,5;	0,0;	0,0
477,469482421875;	213,25;	0,0;	0,0
477,50848388671875;	239,0;	0,0;	0,0
477,5475158691406;	228,75;	0,0;	0,0
477,58648681640625;	229,25;	0,0;	0,0
477,62554931640625;	236,25;	0,0;	0,0
477,66448974609375;	241,0;	0,0;	0,0
477,70343017578125;	221,0;	0,0;	0,0
477,7424011230469;	231,25;	0,0;	0,0
477,7813415527344;	230,5;	0,0;	0,0
477,8203125;	227,5;	0,0;	0,0
477,85919189453125;	236,0;	0,0;	0,0
477,89813232421875;	223,5;	0,0;	0,0
477,93701171875;	249,0;	0,0;	0,0
477,9759216308594;	218,75;	0,0;	0,0
478,0147705078125;	229,25;	0,0;	0,0
478,05364990234375;	216,0;	0,0;	0,0
478,092529296875;	247,25;	0,0;	0,0
478,13134765625;	229,0;	0,0;	0,0
478,170166015625;	259,75;	0,0;	0,0
478,2089538574219;	240,0;	0,0;	0,0
478,2477722167969;	254,5;	0,0;	0,0
478,28656005859375;	264,0;	0,0;	0,0
478,3253479003906;	271,0;	0,0;	0,0
478,3641052246094;	266,25;	0,0;	0,0
478,4028625488281;	243,5;	0,0;	0,0
478,4416198730469;	248,75;	0,0;	0,0
478,48028564453125;	250,5;	0,0;	0,0
478,51904296875;	247,0;	0,0;	0,0
478,5577392578125;	223,5;	0,0;	0,0
478,596435546875;	239,75;	0,0;	0,0
478,6351013183594;	243,25;	0,0;	0,0
478,6737365722656;	252,25;	0,0;	0,0
478,71240234375;	244,5;	0,0;	0,0
478,7510681152344;	234,75;	0,0;	0,0
478,7897033691406;	228,25;	0,0;	0,0
478,82830810546875;	261,0;	0,0;	0,0
478,8669128417969;	250,0;	0,0;	0,0
478,9054870605469;	261,75;	0,0;	0,0
478,9440612792969;	258,25;	0,0;	0,0
478,982666015625;	251,5;	0,0;	0,0
479,0212097167969;	237,0;	0,0;	0,0
479,05975341796875;	228,5;	0,0;	0,0
479,0982971191406;	223,25;	0,0;	0,0
479,1368103027344;	230,0;	0,0;	0,0
479,17529296875;	246,75;	0,0;	0,0
479,21380615234375;	236,0;	0,0;	0,0
479,2522888183594;	220,25;	0,0;	0,0
479,29071044921875;	235,0;	0,0;	0,0
479,3292236328125;	227,0;	0,0;	0,0
479,3676452636719;	239,25;	0,0;	0,0
479,4060974121094;	239,5;	0,0;	0,0
479,44451904296875;	238,5;	0,0;	0,0
479,4829406738281;	239,5;	0,0;	0,0
479,52130126953125;	219,0;	0,0;	0,0
479,5596923828125;	241,5;	0,0;	0,0
479,59808349609375;	232,25;	0,0;	0,0
479,63641357421875;	237,75;	0,0;	0,0
479,6747741699219;	242,25;	0,0;	0,0
479,7131042480469;	222,0;	0,0;	0,0
479,7514343261719;	230,25;	0,0;	0,0
479,7897644042969;	249,5;	0,0;	0,0
479,8280334472656;	254,25;	0,0;	0,0
479,8663330078125;	243,0;	0,0;	0,0
479,9045715332031;	229,0;	0,0;	0,0
479,9428405761719;	226,0;	0,0;	0,0
479,9811096191406;	253,75;	0,0;	0,0
480,01934814453125;	249,5;	0,0;	0,0
480,05755615234375;	257,5;	0,0;	0,0
480,0957946777344;	245,5;	0,0;	0,0
480,1340026855469;	256,0;	0,0;	0,0
480,17218017578125;	231,75;	0,0;	0,0
480,2103576660156;	240,75;	0,0;	0,0
480,24847412109375;	236,25;	0,0;	0,0
480,28668212890625;	261,25;	0,0;	0,0
480,3247985839844;	230,0;	0,0;	0,0
480,3629455566406;	225,25;	0,0;	0,0
480,4010314941406;	236,75;	0,0;	0,0
480,4391174316406;	218,0;	0,0;	0,0
480,4772033691406;	269,0;	0,0;	0,0
480,5152893066406;	224,0;	0,0;	0,0
480,5533447265625;	238,5;	0,0;	0,0
480,5914001464844;	216,25;	0,0;	0,0
480,62945556640625;	231,0;	0,0;	0,0
480,66748046875;	233,5;	0,0;	0,0
480,7054748535156;	246,5;	0,0;	0,0
480,7434997558594;	261,25;	0,0;	0,0
480,781494140625;	233,5;	0,0;	0,0
480,8194580078125;	250,0;	0,0;	0,0
480,857421875;	238,25;	0,0;	0,0
480,8953857421875;	256,25;	0,0;	0,0
480,9333190917969;	247,5;	0,0;	0,0
480,9712829589844;	229,25;	0,0;	0,0
481,0091552734375;	254,5;	0,0;	0,0
481,0470886230469;	256,5;	0,0;	0,0
481,0849914550781;	247,5;	0,0;	0,0
481,1228332519531;	248,25;	0,0;	0,0
481,16070556640625;	231,0;	0,0;	0,0
481,1985778808594;	235,75;	0,0;	0,0
481,2364196777344;	246,25;	0,0;	0,0
481,27423095703125;	255,75;	0,0;	0,0
481,3120422363281;	225,5;	0,0;	0,0
481,349853515625;	247,0;	0,0;	0,0
481,3876647949219;	240,25;	0,0;	0,0
481,4254150390625;	223,5;	0,0;	0,0
481,46319580078125;	231,75;	0,0;	0,0
481,5009765625;	234,75;	0,0;	0,0
481,5386962890625;	228,0;	0,0;	0,0
481,576416015625;	230,5;	0,0;	0,0
481,6141662597656;	216,75;	0,0;	0,0
481,65185546875;	230,25;	0,0;	0,0
481,6895446777344;	229,75;	0,0;	0,0
481,72723388671875;	232,0;	0,0;	0,0
481,764892578125;	238,25;	0,0;	0,0
481,8025817871094;	227,75;	0,0;	0,0
481,8402099609375;	225,0;	0,0;	0,0
481,8778381347656;	238,75;	0,0;	0,0
481,91546630859375;	242,0;	0,0;	0,0
481,95306396484375;	226,0;	0,0;	0,0
481,99066162109375;	222,25;	0,0;	0,0
482,02825927734375;	248,5;	0,0;	0,0
482,0658264160156;	245,75;	0,0;	0,0
482,1033935546875;	243,0;	0,0;	0,0
482,1408996582031;	247,5;	0,0;	0,0
482,178466796875;	235,5;	0,0;	0,0
482,2159729003906;	250,25;	0,0;	0,0
482,2534484863281;	251,75;	0,0;	0,0
482,29095458984375;	245,0;	0,0;	0,0
482,3284606933594;	260,25;	0,0;	0,0
482,36590576171875;	290,25;	0,0;	0,0
482,40338134765625;	236,5;	0,0;	0,0
482,4408264160156;	222,75;	0,0;	0,0
482,478271484375;	237,5;	0,0;	0,0
482,5157165527344;	234,5;	0,0;	0,0
482,5531005859375;	234,0;	0,0;	0,0
482,59051513671875;	236,75;	0,0;	0,0
482,6278991699219;	230,75;	0,0;	0,0
482,6652526855469;	239,75;	0,0;	0,0
482,7026062011719;	240,25;	0,0;	0,0
482,739990234375;	234,0;	0,0;	0,0
482,77728271484375;	224,75;	0,0;	0,0
482,81463623046875;	237,25;	0,0;	0,0
482,8519287109375;	254,25;	0,0;	0,0
482,8892517089844;	237,0;	0,0;	0,0
482,926513671875;	227,5;	0,0;	0,0
482,96380615234375;	239,75;	0,0;	0,0
483,00103759765625;	241,5;	0,0;	0,0
483,038330078125;	255,5;	0,0;	0,0
483,0755310058594;	246,5;	0,0;	0,0
483,1127624511719;	240,25;	0,0;	0,0
483,14996337890625;	246,75;	0,0;	0,0
483,1871643066406;	226,25;	0,0;	0,0
483,2243347167969;	246,25;	0,0;	0,0
483,26153564453125;	243,25;	0,0;	0,0
483,2986755371094;	229,0;	0,0;	0,0
483,3358154296875;	236,75;	0,0;	0,0
483,3729553222656;	237,0;	0,0;	0,0
483,41009521484375;	247,5;	0,0;	0,0
483,44720458984375;	254,5;	0,0;	0,0
483,48431396484375;	243,0;	0,0;	0,0
483,5213928222656;	236,25;	0,0;	0,0
483,5584716796875;	235,0;	0,0;	0,0
483,59552001953125;	253,75;	0,0;	0,0
483,6325988769531;	246,75;	0,0;	0,0
483,66961669921875;	233,5;	0,0;	0,0
483,7066650390625;	248,0;	0,0;	0,0
483,7436828613281;	239,0;	0,0;	0,0
483,7806396484375;	238,25;	0,0;	0,0
483,8176574707031;	231,25;	0,0;	0,0
483,8546142578125;	277,75;	0,0;	0,0
483,8916015625;	259,5;	0,0;	0,0
483,92852783203125;	256,0;	0,0;	0,0
483,9654541015625;	253,5;	0,0;	0,0
484,00238037109375;	236,0;	0,0;	0,0
484,0392761230469;	234,75;	0,0;	0,0
484,0762023925781;	251,25;	0,0;	0,0
484,1130676269531;	260,5;	0,0;	0,0
484,14996337890625;	250,25;	0,0;	0,0
484,1867980957031;	249,5;	0,0;	0,0
484,22369384765625;	252,25;	0,0;	0,0
484,260498046875;	229,5;	0,0;	0,0
484,2973327636719;	255,75;	0,0;	0,0
484,33416748046875;	268,0;	0,0;	0,0
484,3709716796875;	239,25;	0,0;	0,0
484,4077453613281;	245,0;	0,0;	0,0
484,44451904296875;	235,25;	0,0;	0,0
484,4812927246094;	248,25;	0,0;	0,0
484,5180358886719;	243,0;	0,0;	0,0
484,5547790527344;	230,0;	0,0;	0,0
484,59149169921875;	258,0;	0,0;	0,0
484,628173828125;	240,5;	0,0;	0,0
484,6649169921875;	238,0;	0,0;	0,0
484,7015686035156;	231,0;	0,0;	0,0
484,7383117675781;	238,5;	0,0;	0,0
484,77490234375;	248,5;	0,0;	0,0
484,8116149902344;	248,25;	0,0;	0,0
484,84820556640625;	242,0;	0,0;	0,0
484,8848571777344;	229,0;	0,0;	0,0
484,92144775390625;	250,25;	0,0;	0,0
484,9580383300781;	246,25;	0,0;	0,0
484,9946594238281;	247,0;	0,0;	0,0
485,03125;	247,0;	0,0;	0,0
485,06781005859375;	254,0;	0,0;	0,0
485,1043395996094;	265,5;	0,0;	0,0
485,140869140625;	250,5;	0,0;	0,0
485,1773986816406;	255,0;	0,0;	0,0
485,2138977050781;	253,0;	0,0;	0,0
485,25042724609375;	260,5;	0,0;	0,0
485,2868957519531;	239,75;	0,0;	0,0
485,3233947753906;	238,75;	0,0;	0,0
485,35986328125;	259,5;	0,0;	0,0
485,39630126953125;	245,5;	0,0;	0,0
485,4327392578125;	258,25;	0,0;	0,0
485,46917724609375;	257,75;	0,0;	0,0
485,5055847167969;	254,75;	0,0;	0,0
485,54193115234375;	242,75;	0,0;	0,0
485,578369140625;	271,25;	0,0;	0,0
485,61474609375;	252,5;	0,0;	0,0
485,651123046875;	244,25;	0,0;	0,0
485,68743896484375;	261,25;	0,0;	0,0
485,7237854003906;	266,75;	0,0;	0,0
485,7601013183594;	301,5;	0,0;	0,0
485,7964172363281;	277,75;	0,0;	0,0
485,83270263671875;	288,5;	0,0;	0,0
485,8690185546875;	304,5;	0,0;	0,0
485,9053039550781;	302,25;	0,0;	0,0
485,9415588378906;	338,25;	0,0;	0,0
485,977783203125;	411,75;	0,0;	0,0
486,0140380859375;	349,25;	0,0;	0,0
486,0502624511719;	274,75;	0,0;	0,0
486,0864562988281;	247,0;	0,0;	0,0
486,1226806640625;	240,0;	0,0;	0,0
486,15887451171875;	248,75;	0,0;	0,0
486,1950378417969;	246,5;	0,0;	0,0
486,231201171875;	257,25;	0,0;	0,0
486,2673645019531;	238,5;	0,0;	0,0
486,3034973144531;	281,5;	0,0;	0,0
486,3396301269531;	242,25;	0,0;	0,0
486,3757019042969;	242,25;	0,0;	0,0
486,4118347167969;	268,5;	0,0;	0,0
486,4479064941406;	240,25;	0,0;	0,0
486,4840087890625;	249,75;	0,0;	0,0
486,52001953125;	241,5;	0,0;	0,0
486,55609130859375;	263,0;	0,0;	0,0
486,59210205078125;	251,25;	0,0;	0,0
486,6281433105469;	262,5;	0,0;	0,0
486,6641540527344;	252,75;	0,0;	0,0
486,7001647949219;	264,25;	0,0;	0,0
486,7361755371094;	261,0;	0,0;	0,0
486,7721252441406;	269,5;	0,0;	0,0
486,80810546875;	264,75;	0,0;	0,0
486,8440246582031;	278,25;	0,0;	0,0
486,8799743652344;	289,0;	0,0;	0,0
486,9158935546875;	350,5;	0,0;	0,0
486,9518127441406;	369,75;	0,0;	0,0
486,98773193359375;	399,25;	0,0;	0,0
487,0235900878906;	450,5;	0,0;	0,0
487,0594787597656;	468,5;	0,0;	0,0
487,0953369140625;	517,75;	0,0;	0,0
487,1311950683594;	688,75;	0,0;	0,0
487,1670227050781;	585,0;	0,0;	0,0
487,20281982421875;	484,75;	0,0;	0,0
487,2386474609375;	420,75;	0,0;	0,0
487,2744140625;	327,25;	0,0;	0,0
487,31024169921875;	243,75;	0,0;	0,0
487,3459777832031;	267,5;	0,0;	0,0
487,38177490234375;	253,25;	0,0;	0,0
487,41748046875;	246,75;	0,0;	0,0
487,4532470703125;	235,0;	0,0;	0,0
487,48895263671875;	249,75;	0,0;	0,0
487,524658203125;	266,25;	0,0;	0,0
487,56036376953125;	238,5;	0,0;	0,0
487,5960693359375;	267,25;	0,0;	0,0
487,6317138671875;	282,5;	0,0;	0,0
487,6673889160156;	287,25;	0,0;	0,0
487,7030029296875;	279,5;	0,0;	0,0
487,7386474609375;	296,25;	0,0;	0,0
487,7742919921875;	288,5;	0,0;	0,0
487,8099060058594;	372,75;	0,0;	0,0
487,84552001953125;	316,5;	0,0;	0,0
487,8810729980469;	275,25;	0,0;	0,0
487,9166564941406;	251,5;	0,0;	0,0
487,95220947265625;	243,25;	0,0;	0,0
487,9877624511719;	249,75;	0,0;	0,0
488,0232849121094;	264,75;	0,0;	0,0
488,0588073730469;	233,5;	0,0;	0,0
488,09429931640625;	238,75;	0,0;	0,0
488,12982177734375;	250,5;	0,0;	0,0
488,165283203125;	274,75;	0,0;	0,0
488,2007751464844;	249,75;	0,0;	0,0
488,2362060546875;	254,25;	0,0;	0,0
488,27166748046875;	232,25;	0,0;	0,0
488,30706787109375;	253,25;	0,0;	0,0
488,3424987792969;	239,25;	0,0;	0,0
488,3779296875;	265,25;	0,0;	0,0
488,4132995605469;	262,0;	0,0;	0,0
488,4486999511719;	285,0;	0,0;	0,0
488,48406982421875;	248,0;	0,0;	0,0
488,5194091796875;	269,0;	0,0;	0,0
488,55474853515625;	260,0;	0,0;	0,0
488,590087890625;	274,5;	0,0;	0,0
488,62542724609375;	280,0;	0,0;	0,0
488,66070556640625;	270,0;	0,0;	0,0
488,69598388671875;	305,5;	0,0;	0,0
488,7312927246094;	267,0;	0,0;	0,0
488,7665710449219;	296,25;	0,0;	0,0
488,80181884765625;	286,5;	0,0;	0,0
488,8370666503906;	321,0;	0,0;	0,0
488,8722839355469;	379,75;	0,0;	0,0
488,907470703125;	434,5;	0,0;	0,0
488,94268798828125;	468,5;	0,0;	0,0
488,9778747558594;	533,75;	0,0;	0,0
489,0130615234375;	577,0;	0,0;	0,0
489,0482177734375;	648,25;	0,0;	0,0
489,0834045410156;	749,25;	0,0;	0,0
489,1184997558594;	781,75;	0,0;	0,0
489,15362548828125;	800,75;	0,0;	0,0
489,1887512207031;	610,5;	0,0;	0,0
489,2238464355469;	331,5;	0,0;	0,0
489,2589416503906;	293,5;	0,0;	0,0
489,2940368652344;	261,75;	0,0;	0,0
489,3290710449219;	250,75;	0,0;	0,0
489,3641662597656;	251,25;	0,0;	0,0
489,399169921875;	245,75;	0,0;	0,0
489,4342346191406;	238,75;	0,0;	0,0
489,46923828125;	249,75;	0,0;	0,0
489,5042419433594;	243,75;	0,0;	0,0
489,5392150878906;	225,5;	0,0;	0,0
489,57421875;	249,75;	0,0;	0,0
489,6091613769531;	231,75;	0,0;	0,0
489,6441345214844;	240,25;	0,0;	0,0
489,6790466308594;	249,75;	0,0;	0,0
489,7139892578125;	220,25;	0,0;	0,0
489,7489013671875;	237,75;	0,0;	0,0
489,78375244140625;	247,25;	0,0;	0,0
489,8186950683594;	236,0;	0,0;	0,0
489,8535461425781;	228,25;	0,0;	0,0
489,888427734375;	245,0;	0,0;	0,0
489,9232482910156;	224,25;	0,0;	0,0
489,9580993652344;	237,0;	0,0;	0,0
489,9928894042969;	237,5;	0,0;	0,0
490,0277099609375;	236,5;	0,0;	0,0
490,0625305175781;	241,5;	0,0;	0,0
490,0972900390625;	234,5;	0,0;	0,0
490,132080078125;	278,0;	0,0;	0,0
490,1668395996094;	267,75;	0,0;	0,0
490,20159912109375;	265,75;	0,0;	0,0
490,236328125;	255,25;	0,0;	0,0
490,27105712890625;	271,75;	0,0;	0,0
490,3057556152344;	303,5;	0,0;	0,0
490,3404541015625;	329,75;	0,0;	0,0
490,3751525878906;	286,75;	0,0;	0,0
490,4097900390625;	258,0;	0,0;	0,0
490,4444580078125;	239,75;	0,0;	0,0
490,4790954589844;	243,25;	0,0;	0,0
490,51373291015625;	226,25;	0,0;	0,0
490,5483703613281;	234,25;	0,0;	0,0
490,58294677734375;	244,5;	0,0;	0,0
490,6175842285156;	211,25;	0,0;	0,0
490,652099609375;	238,5;	0,0;	0,0
490,68670654296875;	240,5;	0,0;	0,0
490,72125244140625;	247,5;	0,0;	0,0
490,75579833984375;	250,25;	0,0;	0,0
490,79034423828125;	271,0;	0,0;	0,0
490,8248291015625;	258,25;	0,0;	0,0
490,8593444824219;	230,75;	0,0;	0,0
490,89385986328125;	266,25;	0,0;	0,0
490,9283447265625;	260,5;	0,0;	0,0
490,9627685546875;	264,5;	0,0;	0,0
490,99725341796875;	249,5;	0,0;	0,0
491,03167724609375;	261,75;	0,0;	0,0
491,0661315917969;	241,5;	0,0;	0,0
491,10052490234375;	240,25;	0,0;	0,0
491,13494873046875;	249,75;	0,0;	0,0
491,1693115234375;	248,25;	0,0;	0,0
491,2037048339844;	240,75;	0,0;	0,0
491,238037109375;	235,25;	0,0;	0,0
491,2724304199219;	241,5;	0,0;	0,0
491,3067321777344;	245,25;	0,0;	0,0
491,3410949707031;	243,0;	0,0;	0,0
491,3753967285156;	228,75;	0,0;	0,0
491,4096984863281;	231,0;	0,0;	0,0
491,4439697265625;	252,75;	0,0;	0,0
491,478271484375;	240,0;	0,0;	0,0
491,51251220703125;	232,0;	0,0;	0,0
491,5467834472656;	252,25;	0,0;	0,0
491,58099365234375;	266,0;	0,0;	0,0
491,6152648925781;	255,25;	0,0;	0,0
491,6494445800781;	272,5;	0,0;	0,0
491,6836853027344;	334,0;	0,0;	0,0
491,71783447265625;	354,5;	0,0;	0,0
491,75201416015625;	363,0;	0,0;	0,0
491,7861633300781;	405,5;	0,0;	0,0
491,8203430175781;	515,75;	0,0;	0,0
491,85443115234375;	595,0;	0,0;	0,0
491,8885498046875;	720,75;	0,0;	0,0
491,9226989746094;	732,0;	0,0;	0,0
491,9568176269531;	665,25;	0,0;	0,0
491,9908752441406;	623,25;	0,0;	0,0
492,02490234375;	737,0;	0,0;	0,0
492,0589904785156;	971,25;	0,0;	0,0
492,093017578125;	798,5;	0,0;	0,0
492,1270751953125;	374,5;	0,0;	0,0
492,1610412597656;	311,5;	0,0;	0,0
492,1950988769531;	279,0;	0,0;	0,0
492,22906494140625;	262,0;	0,0;	0,0
492,2630615234375;	266,75;	0,0;	0,0
492,2969970703125;	265,25;	0,0;	0,0
492,33099365234375;	273,75;	0,0;	0,0
492,36492919921875;	260,5;	0,0;	0,0
492,39886474609375;	281,0;	0,0;	0,0
492,4327697753906;	272,75;	0,0;	0,0
492,4666748046875;	254,0;	0,0;	0,0
492,5005798339844;	256,25;	0,0;	0,0
492,5344543457031;	231,25;	0,0;	0,0
492,56829833984375;	255,5;	0,0;	0,0
492,60211181640625;	226,75;	0,0;	0,0
492,635986328125;	244,5;	0,0;	0,0
492,66986083984375;	234,0;	0,0;	0,0
492,7036437988281;	233,5;	0,0;	0,0
492,7373962402344;	241,25;	0,0;	0,0
492,771240234375;	235,75;	0,0;	0,0
492,8049621582031;	235,75;	0,0;	0,0
492,8387451171875;	234,0;	0,0;	0,0
492,87249755859375;	242,25;	0,0;	0,0
492,90625;	250,0;	0,0;	0,0
492,93994140625;	260,25;	0,0;	0,0
492,97369384765625;	240,25;	0,0;	0,0
493,00738525390625;	237,5;	0,0;	0,0
493,04107666015625;	234,5;	0,0;	0,0
493,0747375488281;	245,0;	0,0;	0,0
493,1083984375;	225,5;	0,0;	0,0
493,14202880859375;	233,5;	0,0;	0,0
493,1756896972656;	236,75;	0,0;	0,0
493,20928955078125;	258,25;	0,0;	0,0
493,242919921875;	261,5;	0,0;	0,0
493,2764892578125;	255,25;	0,0;	0,0
493,31011962890625;	268,25;	0,0;	0,0
493,3436584472656;	271,25;	0,0;	0,0
493,3772277832031;	289,0;	0,0;	0,0
493,4107360839844;	300,25;	0,0;	0,0
493,4442443847656;	288,5;	0,0;	0,0
493,4778137207031;	257,0;	0,0;	0,0
493,5113525390625;	257,0;	0,0;	0,0
493,5447998046875;	246,5;	0,0;	0,0
493,5782470703125;	247,5;	0,0;	0,0
493,61175537109375;	255,25;	0,0;	0,0
493,6451721191406;	0,0;	0,0;	0,0
