-0.5	1.0
Integration time [ms]:	1.05
Averaging Nr. [scans]:1
Smoothing Nr. [pixels]:0
Data measured with spectrometer [name]:b'1703278U8'
Wave	;Sample	;Dark	;Reference	;Scope	
[nm]	;[counts]	;[counts]	;[counts]	
 
619,9722900390625;	311,75;	0,0;	0,0
620,0406494140625;	295,25;	0,0;	0,0
620,1089477539062;	303,75;	0,0;	0,0
620,17724609375;	317,25;	0,0;	0,0
620,2455444335938;	335,0;	0,0;	0,0
620,3137817382812;	312,75;	0,0;	0,0
620,382080078125;	339,5;	0,0;	0,0
620,4503173828125;	343,75;	0,0;	0,0
620,5185546875;	353,0;	0,0;	0,0
620,5867919921875;	328,0;	0,0;	0,0
620,6549072265625;	347,25;	0,0;	0,0
620,72314453125;	335,25;	0,0;	0,0
620,7913208007812;	354,25;	0,0;	0,0
620,8594360351562;	332,0;	0,0;	0,0
620,9276123046875;	344,5;	0,0;	0,0
620,9957885742188;	352,0;	0,0;	0,0
621,0638427734375;	340,5;	0,0;	0,0
621,1319580078125;	359,0;	0,0;	0,0
621,2000732421875;	335,5;	0,0;	0,0
621,2681274414062;	362,25;	0,0;	0,0
621,336181640625;	355,5;	0,0;	0,0
621,404296875;	394,25;	0,0;	0,0
621,4722900390625;	376,5;	0,0;	0,0
621,540283203125;	362,25;	0,0;	0,0
621,6083374023438;	400,0;	0,0;	0,0
621,67626953125;	388,25;	0,0;	0,0
621,7442626953125;	371,5;	0,0;	0,0
621,812255859375;	380,75;	0,0;	0,0
621,8801879882812;	436,0;	0,0;	0,0
621,9481201171875;	405,0;	0,0;	0,0
622,0159912109375;	435,0;	0,0;	0,0
622,0839233398438;	391,25;	0,0;	0,0
622,15185546875;	403,25;	0,0;	0,0
622,2196655273438;	404,5;	0,0;	0,0
622,2875366210938;	404,5;	0,0;	0,0
622,3554077148438;	402,5;	0,0;	0,0
622,4232177734375;	430,0;	0,0;	0,0
622,4910278320312;	423,5;	0,0;	0,0
622,5588989257812;	429,25;	0,0;	0,0
622,6266479492188;	401,25;	0,0;	0,0
622,6943969726562;	437,25;	0,0;	0,0
622,76220703125;	416,0;	0,0;	0,0
622,8298950195312;	461,25;	0,0;	0,0
622,8976440429688;	464,0;	0,0;	0,0
622,9653930664062;	519,0;	0,0;	0,0
623,0330810546875;	554,0;	0,0;	0,0
623,1007080078125;	759,5;	0,0;	0,0
623,1683349609375;	678,0;	0,0;	0,0
623,2360229492188;	513,0;	0,0;	0,0
623,3037109375;	503,0;	0,0;	0,0
623,3712768554688;	466,5;	0,0;	0,0
623,43896484375;	472,25;	0,0;	0,0
623,506591796875;	427,0;	0,0;	0,0
623,5740966796875;	429,5;	0,0;	0,0
623,6417236328125;	424,5;	0,0;	0,0
623,7092895507812;	468,25;	0,0;	0,0
623,7767944335938;	447,0;	0,0;	0,0
623,8443603515625;	416,0;	0,0;	0,0
623,9119262695312;	438,25;	0,0;	0,0
623,9793701171875;	417,75;	0,0;	0,0
624,046875;	450,0;	0,0;	0,0
624,1143798828125;	428,5;	0,0;	0,0
624,1818237304688;	425,0;	0,0;	0,0
624,249267578125;	396,5;	0,0;	0,0
624,316650390625;	424,75;	0,0;	0,0
624,3840942382812;	404,5;	0,0;	0,0
624,4515380859375;	414,75;	0,0;	0,0
624,518798828125;	436,5;	0,0;	0,0
624,5862426757812;	479,25;	0,0;	0,0
624,6536254882812;	513,75;	0,0;	0,0
624,7208862304688;	535,75;	0,0;	0,0
624,7882690429688;	442,25;	0,0;	0,0
624,8555908203125;	441,25;	0,0;	0,0
624,9228515625;	422,5;	0,0;	0,0
624,9901733398438;	421,75;	0,0;	0,0
625,0574951171875;	451,75;	0,0;	0,0
625,1246948242188;	442,0;	0,0;	0,0
625,1919555664062;	484,5;	0,0;	0,0
625,2592163085938;	550,25;	0,0;	0,0
625,3263549804688;	585,25;	0,0;	0,0
625,3936157226562;	473,75;	0,0;	0,0
625,4608154296875;	433,0;	0,0;	0,0
625,5279541015625;	461,75;	0,0;	0,0
625,5950927734375;	453,0;	0,0;	0,0
625,6622314453125;	435,0;	0,0;	0,0
625,7293701171875;	428,25;	0,0;	0,0
625,7965087890625;	437,5;	0,0;	0,0
625,8635864257812;	428,25;	0,0;	0,0
625,9306640625;	403,5;	0,0;	0,0
625,9977416992188;	413,5;	0,0;	0,0
626,0647583007812;	412,0;	0,0;	0,0
626,1318359375;	418,75;	0,0;	0,0
626,1989135742188;	405,5;	0,0;	0,0
626,265869140625;	386,75;	0,0;	0,0
626,3328857421875;	398,25;	0,0;	0,0
626,39990234375;	404,5;	0,0;	0,0
626,466796875;	396,25;	0,0;	0,0
626,5338134765625;	425,25;	0,0;	0,0
626,6007690429688;	399,25;	0,0;	0,0
626,6676635742188;	389,5;	0,0;	0,0
626,734619140625;	390,25;	0,0;	0,0
626,8014526367188;	379,5;	0,0;	0,0
626,8683471679688;	393,5;	0,0;	0,0
626,9352416992188;	383,5;	0,0;	0,0
627,0020141601562;	416,25;	0,0;	0,0
627,0689086914062;	442,0;	0,0;	0,0
627,1357421875;	373,75;	0,0;	0,0
627,2025756835938;	394,25;	0,0;	0,0
627,2694091796875;	402,25;	0,0;	0,0
627,3361206054688;	381,5;	0,0;	0,0
627,4028930664062;	382,0;	0,0;	0,0
627,4696655273438;	341,75;	0,0;	0,0
627,5364379882812;	418,5;	0,0;	0,0
627,6031494140625;	399,5;	0,0;	0,0
627,6697998046875;	412,75;	0,0;	0,0
627,7365112304688;	389,0;	0,0;	0,0
627,8031616210938;	383,25;	0,0;	0,0
627,869873046875;	367,75;	0,0;	0,0
627,9365234375;	393,25;	0,0;	0,0
628,0031127929688;	403,75;	0,0;	0,0
628,0697631835938;	384,0;	0,0;	0,0
628,1363525390625;	402,0;	0,0;	0,0
628,2030029296875;	354,75;	0,0;	0,0
628,26953125;	373,0;	0,0;	0,0
628,3361206054688;	405,75;	0,0;	0,0
628,4026489257812;	408,0;	0,0;	0,0
628,46923828125;	372,0;	0,0;	0,0
628,5357055664062;	367,25;	0,0;	0,0
628,6022338867188;	379,5;	0,0;	0,0
628,6687622070312;	385,75;	0,0;	0,0
628,7352294921875;	367,5;	0,0;	0,0
628,8016357421875;	366,5;	0,0;	0,0
628,8681640625;	385,5;	0,0;	0,0
628,9345703125;	379,25;	0,0;	0,0
629,0010375976562;	367,75;	0,0;	0,0
629,0673217773438;	366,25;	0,0;	0,0
629,1337890625;	396,75;	0,0;	0,0
629,2001953125;	351,25;	0,0;	0,0
629,2664794921875;	355,0;	0,0;	0,0
629,3328247070312;	397,75;	0,0;	0,0
629,3992309570312;	355,5;	0,0;	0,0
629,4655151367188;	351,25;	0,0;	0,0
629,5317993164062;	369,0;	0,0;	0,0
629,59814453125;	361,5;	0,0;	0,0
629,6643676757812;	352,75;	0,0;	0,0
629,7306518554688;	361,75;	0,0;	0,0
629,7969360351562;	386,0;	0,0;	0,0
629,8631591796875;	397,0;	0,0;	0,0
629,9293212890625;	390,75;	0,0;	0,0
629,9955444335938;	392,25;	0,0;	0,0
630,061767578125;	383,25;	0,0;	0,0
630,1278686523438;	446,0;	0,0;	0,0
630,194091796875;	462,0;	0,0;	0,0
630,26025390625;	455,75;	0,0;	0,0
630,3263549804688;	412,5;	0,0;	0,0
630,3924560546875;	370,0;	0,0;	0,0
630,45849609375;	366,5;	0,0;	0,0
630,524658203125;	371,0;	0,0;	0,0
630,5906982421875;	345,25;	0,0;	0,0
630,65673828125;	368,25;	0,0;	0,0
630,7228393554688;	352,5;	0,0;	0,0
630,7888793945312;	319,75;	0,0;	0,0
630,8548583984375;	346,0;	0,0;	0,0
630,9208984375;	344,5;	0,0;	0,0
630,98681640625;	355,0;	0,0;	0,0
631,0527954101562;	359,75;	0,0;	0,0
631,1187744140625;	350,25;	0,0;	0,0
631,1846923828125;	336,0;	0,0;	0,0
631,2506713867188;	346,25;	0,0;	0,0
631,3165893554688;	341,0;	0,0;	0,0
631,3824462890625;	349,75;	0,0;	0,0
631,4483032226562;	344,5;	0,0;	0,0
631,51416015625;	365,5;	0,0;	0,0
631,5800170898438;	384,0;	0,0;	0,0
631,6459350585938;	377,5;	0,0;	0,0
631,711669921875;	350,25;	0,0;	0,0
631,7775268554688;	396,25;	0,0;	0,0
631,8433227539062;	413,75;	0,0;	0,0
631,9090576171875;	403,5;	0,0;	0,0
631,974853515625;	363,25;	0,0;	0,0
632,0406494140625;	346,5;	0,0;	0,0
632,1063232421875;	346,0;	0,0;	0,0
632,1720581054688;	376,25;	0,0;	0,0
632,23779296875;	351,25;	0,0;	0,0
632,303466796875;	367,5;	0,0;	0,0
632,369140625;	350,75;	0,0;	0,0
632,4348754882812;	345,0;	0,0;	0,0
632,5004272460938;	353,0;	0,0;	0,0
632,5661010742188;	332,0;	0,0;	0,0
632,6317138671875;	357,75;	0,0;	0,0
632,6973266601562;	345,25;	0,0;	0,0
632,762939453125;	351,5;	0,0;	0,0
632,8284912109375;	339,0;	0,0;	0,0
632,89404296875;	347,0;	0,0;	0,0
632,9595947265625;	318,25;	0,0;	0,0
633,025146484375;	351,0;	0,0;	0,0
633,0906372070312;	316,75;	0,0;	0,0
633,1561889648438;	368,0;	0,0;	0,0
633,2216186523438;	362,5;	0,0;	0,0
633,287109375;	333,5;	0,0;	0,0
633,3526000976562;	327,0;	0,0;	0,0
633,4180297851562;	354,75;	0,0;	0,0
633,4835205078125;	339,5;	0,0;	0,0
633,5488891601562;	371,25;	0,0;	0,0
633,6142578125;	415,75;	0,0;	0,0
633,6796875;	381,0;	0,0;	0,0
633,7450561523438;	427,25;	0,0;	0,0
633,8103637695312;	371,25;	0,0;	0,0
633,8757934570312;	357,5;	0,0;	0,0
633,9410400390625;	329,25;	0,0;	0,0
634,00634765625;	360,0;	0,0;	0,0
634,0717163085938;	351,0;	0,0;	0,0
634,136962890625;	314,5;	0,0;	0,0
634,2022094726562;	344,25;	0,0;	0,0
634,2675170898438;	350,0;	0,0;	0,0
634,3327026367188;	323,5;	0,0;	0,0
634,39794921875;	326,0;	0,0;	0,0
634,4631958007812;	352,75;	0,0;	0,0
634,5283813476562;	362,0;	0,0;	0,0
634,5935668945312;	320,5;	0,0;	0,0
634,6587524414062;	315,25;	0,0;	0,0
634,7238159179688;	317,5;	0,0;	0,0
634,7890014648438;	325,75;	0,0;	0,0
634,8541870117188;	324,5;	0,0;	0,0
634,919189453125;	333,75;	0,0;	0,0
634,9843139648438;	338,5;	0,0;	0,0
635,0493774414062;	319,75;	0,0;	0,0
635,114501953125;	322,25;	0,0;	0,0
635,1795654296875;	338,75;	0,0;	0,0
635,2445068359375;	327,25;	0,0;	0,0
635,3095703125;	344,25;	0,0;	0,0
635,3746337890625;	318,75;	0,0;	0,0
635,4395751953125;	331,5;	0,0;	0,0
635,5045776367188;	354,25;	0,0;	0,0
635,5695190429688;	334,0;	0,0;	0,0
635,6344604492188;	320,5;	0,0;	0,0
635,6994018554688;	341,75;	0,0;	0,0
635,7642822265625;	348,75;	0,0;	0,0
635,8292236328125;	337,5;	0,0;	0,0
635,8941040039062;	331,0;	0,0;	0,0
635,9590454101562;	347,25;	0,0;	0,0
636,0238037109375;	340,25;	0,0;	0,0
636,0886840820312;	349,25;	0,0;	0,0
636,1535034179688;	354,25;	0,0;	0,0
636,2183227539062;	354,5;	0,0;	0,0
636,2831420898438;	337,0;	0,0;	0,0
636,3478393554688;	345,5;	0,0;	0,0
636,4126586914062;	311,5;	0,0;	0,0
636,4774169921875;	350,5;	0,0;	0,0
636,5421142578125;	353,25;	0,0;	0,0
636,60693359375;	315,5;	0,0;	0,0
636,6716918945312;	333,25;	0,0;	0,0
636,736328125;	309,75;	0,0;	0,0
636,801025390625;	318,75;	0,0;	0,0
636,86572265625;	303,0;	0,0;	0,0
636,9302978515625;	305,75;	0,0;	0,0
636,9949951171875;	323,0;	0,0;	0,0
637,0596313476562;	320,75;	0,0;	0,0
637,1242065429688;	336,25;	0,0;	0,0
637,1888427734375;	330,0;	0,0;	0,0
637,2533569335938;	327,75;	0,0;	0,0
637,31787109375;	320,0;	0,0;	0,0
637,3824462890625;	346,25;	0,0;	0,0
637,4469604492188;	306,0;	0,0;	0,0
637,5115356445312;	330,5;	0,0;	0,0
637,5760498046875;	324,75;	0,0;	0,0
637,6405029296875;	331,0;	0,0;	0,0
637,7050170898438;	315,5;	0,0;	0,0
637,7694702148438;	342,0;	0,0;	0,0
637,8339233398438;	333,75;	0,0;	0,0
637,8983764648438;	348,25;	0,0;	0,0
637,9627685546875;	320,0;	0,0;	0,0
638,027099609375;	337,75;	0,0;	0,0
638,091552734375;	350,0;	0,0;	0,0
638,1559448242188;	347,25;	0,0;	0,0
638,2202758789062;	306,5;	0,0;	0,0
638,28466796875;	322,5;	0,0;	0,0
638,3489990234375;	341,75;	0,0;	0,0
638,4132690429688;	361,0;	0,0;	0,0
638,4776000976562;	309,0;	0,0;	0,0
638,5418701171875;	329,25;	0,0;	0,0
638,6061401367188;	348,75;	0,0;	0,0
638,6703491210938;	305,75;	0,0;	0,0
638,7345581054688;	349,5;	0,0;	0,0
638,798828125;	337,5;	0,0;	0,0
638,8630981445312;	314,0;	0,0;	0,0
638,9271850585938;	303,25;	0,0;	0,0
638,9913940429688;	321,25;	0,0;	0,0
639,0556030273438;	323,75;	0,0;	0,0
639,1197509765625;	317,75;	0,0;	0,0
639,1838989257812;	324,0;	0,0;	0,0
639,248046875;	353,0;	0,0;	0,0
639,3121337890625;	399,0;	0,0;	0,0
639,376220703125;	497,75;	0,0;	0,0
639,4403076171875;	473,75;	0,0;	0,0
639,5043334960938;	351,5;	0,0;	0,0
639,568359375;	309,5;	0,0;	0,0
639,6324462890625;	341,5;	0,0;	0,0
639,6964721679688;	311,25;	0,0;	0,0
639,7604370117188;	305,25;	0,0;	0,0
639,8244018554688;	344,25;	0,0;	0,0
639,888427734375;	376,25;	0,0;	0,0
639,952392578125;	470,25;	0,0;	0,0
640,0162963867188;	599,0;	0,0;	0,0
640,0802612304688;	606,0;	0,0;	0,0
640,1442260742188;	387,0;	0,0;	0,0
640,2080078125;	342,5;	0,0;	0,0
640,27197265625;	320,0;	0,0;	0,0
640,3358154296875;	322,0;	0,0;	0,0
640,399658203125;	317,0;	0,0;	0,0
640,4635620117188;	333,0;	0,0;	0,0
640,52734375;	309,25;	0,0;	0,0
640,5911865234375;	323,5;	0,0;	0,0
640,6549682617188;	336,0;	0,0;	0,0
640,7188110351562;	336,0;	0,0;	0,0
640,782470703125;	353,0;	0,0;	0,0
640,8462524414062;	354,0;	0,0;	0,0
640,9099731445312;	335,25;	0,0;	0,0
640,9736938476562;	321,5;	0,0;	0,0
641,0374755859375;	347,5;	0,0;	0,0
641,10107421875;	370,0;	0,0;	0,0
641,164794921875;	410,0;	0,0;	0,0
641,2284545898438;	466,0;	0,0;	0,0
641,2920532226562;	368,75;	0,0;	0,0
641,3557739257812;	335,75;	0,0;	0,0
641,4193725585938;	302,5;	0,0;	0,0
641,4829711914062;	310,5;	0,0;	0,0
641,5465698242188;	323,5;	0,0;	0,0
641,610107421875;	322,25;	0,0;	0,0
641,6737060546875;	324,75;	0,0;	0,0
641,7372436523438;	328,75;	0,0;	0,0
641,80078125;	319,25;	0,0;	0,0
641,8642578125;	321,75;	0,0;	0,0
641,9277954101562;	314,5;	0,0;	0,0
641,9912109375;	346,25;	0,0;	0,0
642,0546875;	387,75;	0,0;	0,0
642,1182250976562;	393,5;	0,0;	0,0
642,1815795898438;	418,25;	0,0;	0,0
642,2450561523438;	347,75;	0,0;	0,0
642,3084716796875;	314,5;	0,0;	0,0
642,371826171875;	298,25;	0,0;	0,0
642,4352416992188;	326,25;	0,0;	0,0
642,4985961914062;	325,5;	0,0;	0,0
642,5618896484375;	333,25;	0,0;	0,0
642,625244140625;	312,25;	0,0;	0,0
642,6885986328125;	338,0;	0,0;	0,0
642,7518920898438;	307,0;	0,0;	0,0
642,815185546875;	296,25;	0,0;	0,0
642,8784790039062;	331,5;	0,0;	0,0
642,9417114257812;	301,5;	0,0;	0,0
643,0050048828125;	354,0;	0,0;	0,0
643,0682373046875;	386,5;	0,0;	0,0
643,1314086914062;	440,5;	0,0;	0,0
643,1946411132812;	312,75;	0,0;	0,0
643,2577514648438;	346,75;	0,0;	0,0
643,3209838867188;	307,5;	0,0;	0,0
643,3841552734375;	288,75;	0,0;	0,0
643,447265625;	314,75;	0,0;	0,0
643,5104370117188;	314,75;	0,0;	0,0
643,5735473632812;	314,75;	0,0;	0,0
643,6365966796875;	311,75;	0,0;	0,0
643,69970703125;	326,75;	0,0;	0,0
643,7628173828125;	378,75;	0,0;	0,0
643,8258056640625;	422,25;	0,0;	0,0
643,888916015625;	523,75;	0,0;	0,0
643,9519653320312;	662,75;	0,0;	0,0
644,0148315429688;	413,75;	0,0;	0,0
644,077880859375;	326,25;	0,0;	0,0
644,140869140625;	304,5;	0,0;	0,0
644,2037963867188;	326,75;	0,0;	0,0
644,2667846679688;	299,25;	0,0;	0,0
644,3297119140625;	312,25;	0,0;	0,0
644,3926391601562;	330,5;	0,0;	0,0
644,45556640625;	319,75;	0,0;	0,0
644,5184326171875;	305,75;	0,0;	0,0
644,5812377929688;	328,0;	0,0;	0,0
644,6441650390625;	301,5;	0,0;	0,0
644,7069702148438;	325,75;	0,0;	0,0
644,7698364257812;	313,75;	0,0;	0,0
644,8327026367188;	310,75;	0,0;	0,0
644,8953857421875;	323,5;	0,0;	0,0
644,9581909179688;	354,75;	0,0;	0,0
645,02099609375;	363,75;	0,0;	0,0
645,083740234375;	345,75;	0,0;	0,0
645,146484375;	326,75;	0,0;	0,0
645,209228515625;	330,25;	0,0;	0,0
645,2719116210938;	305,75;	0,0;	0,0
645,3345947265625;	319,75;	0,0;	0,0
645,3972778320312;	311,25;	0,0;	0,0
645,4599609375;	322,25;	0,0;	0,0
645,5225830078125;	322,5;	0,0;	0,0
645,585205078125;	348,75;	0,0;	0,0
645,6478881835938;	331,75;	0,0;	0,0
645,71044921875;	351,0;	0,0;	0,0
645,7730102539062;	305,5;	0,0;	0,0
645,8356323242188;	322,25;	0,0;	0,0
645,898193359375;	326,25;	0,0;	0,0
645,960693359375;	352,25;	0,0;	0,0
646,0232543945312;	328,5;	0,0;	0,0
646,0858154296875;	326,75;	0,0;	0,0
646,1482543945312;	394,0;	0,0;	0,0
646,2107543945312;	408,5;	0,0;	0,0
646,273193359375;	604,5;	0,0;	0,0
646,335693359375;	482,75;	0,0;	0,0
646,3980712890625;	346,75;	0,0;	0,0
646,4605712890625;	320,5;	0,0;	0,0
646,5228881835938;	309,75;	0,0;	0,0
646,5853881835938;	313,25;	0,0;	0,0
646,647705078125;	310,75;	0,0;	0,0
646,7100830078125;	317,75;	0,0;	0,0
646,7724609375;	345,75;	0,0;	0,0
646,834716796875;	316,25;	0,0;	0,0
646,8970947265625;	355,5;	0,0;	0,0
646,9594116210938;	330,25;	0,0;	0,0
647,0216064453125;	340,25;	0,0;	0,0
647,083984375;	319,25;	0,0;	0,0
647,146240234375;	331,5;	0,0;	0,0
647,2084350585938;	367,25;	0,0;	0,0
647,2706909179688;	301,5;	0,0;	0,0
647,3329467773438;	319,0;	0,0;	0,0
647,3950805664062;	309,0;	0,0;	0,0
647,4573364257812;	329,25;	0,0;	0,0
647,5194702148438;	314,5;	0,0;	0,0
647,5816040039062;	325,75;	0,0;	0,0
647,6437377929688;	338,5;	0,0;	0,0
647,7058715820312;	331,0;	0,0;	0,0
647,7680053710938;	316,5;	0,0;	0,0
647,830078125;	291,75;	0,0;	0,0
647,89208984375;	321,75;	0,0;	0,0
647,9541625976562;	315,25;	0,0;	0,0
648,0162353515625;	340,5;	0,0;	0,0
648,0783081054688;	357,75;	0,0;	0,0
648,1403198242188;	319,25;	0,0;	0,0
648,2023315429688;	362,25;	0,0;	0,0
648,2642822265625;	339,5;	0,0;	0,0
648,3262939453125;	337,25;	0,0;	0,0
648,3882446289062;	327,75;	0,0;	0,0
648,4501342773438;	371,0;	0,0;	0,0
648,5120849609375;	329,0;	0,0;	0,0
648,5740356445312;	351,75;	0,0;	0,0
648,6358642578125;	352,0;	0,0;	0,0
648,6978149414062;	355,25;	0,0;	0,0
648,7596435546875;	361,5;	0,0;	0,0
648,8214721679688;	364,0;	0,0;	0,0
648,8833618164062;	333,25;	0,0;	0,0
648,9451293945312;	355,0;	0,0;	0,0
649,0069580078125;	327,0;	0,0;	0,0
649,0687866210938;	369,25;	0,0;	0,0
649,1305541992188;	341,5;	0,0;	0,0
649,1923217773438;	355,5;	0,0;	0,0
649,2540893554688;	374,0;	0,0;	0,0
649,3157348632812;	411,0;	0,0;	0,0
649,3775024414062;	514,5;	0,0;	0,0
649,439208984375;	594,75;	0,0;	0,0
649,5009155273438;	738,75;	0,0;	0,0
649,5626220703125;	686,0;	0,0;	0,0
649,624267578125;	420,5;	0,0;	0,0
649,6858520507812;	401,75;	0,0;	0,0
649,7474975585938;	384,25;	0,0;	0,0
649,8091430664062;	345,25;	0,0;	0,0
649,8707275390625;	350,5;	0,0;	0,0
649,9322509765625;	380,75;	0,0;	0,0
649,9938354492188;	349,75;	0,0;	0,0
650,055419921875;	333,5;	0,0;	0,0
650,116943359375;	329,5;	0,0;	0,0
650,1784057617188;	322,75;	0,0;	0,0
650,239990234375;	329,75;	0,0;	0,0
650,3014526367188;	327,25;	0,0;	0,0
650,3629150390625;	320,75;	0,0;	0,0
650,4244384765625;	310,75;	0,0;	0,0
650,48583984375;	328,25;	0,0;	0,0
650,5472412109375;	326,25;	0,0;	0,0
650,608642578125;	343,5;	0,0;	0,0
650,6701049804688;	306,25;	0,0;	0,0
650,7314453125;	322,75;	0,0;	0,0
650,7928466796875;	320,0;	0,0;	0,0
650,8541870117188;	307,0;	0,0;	0,0
650,91552734375;	303,25;	0,0;	0,0
650,9768676757812;	312,5;	0,0;	0,0
651,0382080078125;	317,75;	0,0;	0,0
651,0994262695312;	317,5;	0,0;	0,0
651,1607666015625;	345,0;	0,0;	0,0
651,2219848632812;	319,5;	0,0;	0,0
651,2832641601562;	284,25;	0,0;	0,0
651,344482421875;	326,25;	0,0;	0,0
651,4056396484375;	324,75;	0,0;	0,0
651,4669189453125;	310,5;	0,0;	0,0
651,5281372070312;	327,75;	0,0;	0,0
651,5892333984375;	315,5;	0,0;	0,0
651,6504516601562;	319,0;	0,0;	0,0
651,7116088867188;	298,75;	0,0;	0,0
651,7726440429688;	288,75;	0,0;	0,0
651,8338623046875;	315,75;	0,0;	0,0
651,8949584960938;	315,25;	0,0;	0,0
651,9559936523438;	290,5;	0,0;	0,0
652,0170288085938;	323,75;	0,0;	0,0
652,078125;	305,25;	0,0;	0,0
652,13916015625;	328,25;	0,0;	0,0
652,2001953125;	316,5;	0,0;	0,0
652,2611083984375;	316,25;	0,0;	0,0
652,3221435546875;	301,25;	0,0;	0,0
652,3831176757812;	306,0;	0,0;	0,0
652,4440307617188;	330,0;	0,0;	0,0
652,5050048828125;	324,25;	0,0;	0,0
652,5659790039062;	298,5;	0,0;	0,0
652,6268920898438;	320,0;	0,0;	0,0
652,6878051757812;	324,5;	0,0;	0,0
652,7487182617188;	334,5;	0,0;	0,0
652,8095092773438;	333,0;	0,0;	0,0
652,8704223632812;	329,25;	0,0;	0,0
652,9312744140625;	345,5;	0,0;	0,0
652,9920654296875;	317,25;	0,0;	0,0
653,0528564453125;	339,75;	0,0;	0,0
653,1137084960938;	332,5;	0,0;	0,0
653,1744384765625;	341,0;	0,0;	0,0
653,2351684570312;	326,25;	0,0;	0,0
653,2958984375;	287,5;	0,0;	0,0
653,3566284179688;	335,75;	0,0;	0,0
653,4174194335938;	360,75;	0,0;	0,0
653,4780883789062;	322,0;	0,0;	0,0
653,5387573242188;	332,5;	0,0;	0,0
653,5994873046875;	333,75;	0,0;	0,0
653,6600341796875;	311,75;	0,0;	0,0
653,720703125;	329,25;	0,0;	0,0
653,7813720703125;	344,5;	0,0;	0,0
653,8419799804688;	330,75;	0,0;	0,0
653,9025268554688;	358,25;	0,0;	0,0
653,9631958007812;	307,75;	0,0;	0,0
654,0237426757812;	326,0;	0,0;	0,0
654,084228515625;	331,75;	0,0;	0,0
654,1448364257812;	313,75;	0,0;	0,0
654,205322265625;	326,0;	0,0;	0,0
654,2658081054688;	350,75;	0,0;	0,0
654,3262939453125;	330,5;	0,0;	0,0
654,3867797851562;	360,25;	0,0;	0,0
654,447265625;	343,75;	0,0;	0,0
654,5076904296875;	381,5;	0,0;	0,0
654,568115234375;	400,25;	0,0;	0,0
654,6285400390625;	465,75;	0,0;	0,0
654,6889038085938;	444,0;	0,0;	0,0
654,7493286132812;	380,25;	0,0;	0,0
654,8096923828125;	377,25;	0,0;	0,0
654,8699951171875;	393,5;	0,0;	0,0
654,9303588867188;	393,75;	0,0;	0,0
654,99072265625;	416,0;	0,0;	0,0
655,0509643554688;	410,0;	0,0;	0,0
655,111328125;	444,5;	0,0;	0,0
655,1715698242188;	393,75;	0,0;	0,0
655,2317504882812;	436,75;	0,0;	0,0
655,2920532226562;	412,5;	0,0;	0,0
655,3522338867188;	453,0;	0,0;	0,0
655,4124755859375;	460,25;	0,0;	0,0
655,4727172851562;	466,75;	0,0;	0,0
655,5328369140625;	495,75;	0,0;	0,0
655,593017578125;	526,75;	0,0;	0,0
655,6531982421875;	529,5;	0,0;	0,0
655,7133178710938;	515,5;	0,0;	0,0
655,7734375;	569,75;	0,0;	0,0
655,8335571289062;	625,75;	0,0;	0,0
655,8936157226562;	643,75;	0,0;	0,0
655,9537353515625;	666,75;	0,0;	0,0
656,0138549804688;	742,25;	0,0;	0,0
656,0738525390625;	746,75;	0,0;	0,0
656,1339111328125;	862,25;	0,0;	0,0
656,1939086914062;	874,25;	0,0;	0,0
656,2538452148438;	925,25;	0,0;	0,0
656,3139038085938;	984,5;	0,0;	0,0
656,373779296875;	892,25;	0,0;	0,0
656,4337768554688;	881,5;	0,0;	0,0
656,4937133789062;	837,0;	0,0;	0,0
656,5537109375;	777,0;	0,0;	0,0
656,613525390625;	776,75;	0,0;	0,0
656,6734619140625;	674,0;	0,0;	0,0
656,7333374023438;	649,25;	0,0;	0,0
656,793212890625;	653,5;	0,0;	0,0
656,8530883789062;	612,0;	0,0;	0,0
656,9129028320312;	611,25;	0,0;	0,0
656,97265625;	569,5;	0,0;	0,0
657,032470703125;	522,5;	0,0;	0,0
657,0922241210938;	546,75;	0,0;	0,0
657,1520385742188;	499,5;	0,0;	0,0
657,2118530273438;	456,5;	0,0;	0,0
657,2715454101562;	452,75;	0,0;	0,0
657,3312377929688;	462,25;	0,0;	0,0
657,3909912109375;	421,75;	0,0;	0,0
657,45068359375;	433,25;	0,0;	0,0
657,5103149414062;	421,75;	0,0;	0,0
657,5700073242188;	410,25;	0,0;	0,0
657,629638671875;	402,0;	0,0;	0,0
657,6892700195312;	404,75;	0,0;	0,0
657,7488403320312;	384,0;	0,0;	0,0
657,8085327148438;	392,25;	0,0;	0,0
657,8681030273438;	354,5;	0,0;	0,0
657,9276733398438;	345,5;	0,0;	0,0
657,9871826171875;	364,75;	0,0;	0,0
658,0467529296875;	375,5;	0,0;	0,0
658,106201171875;	355,5;	0,0;	0,0
658,165771484375;	362,75;	0,0;	0,0
658,2252807617188;	369,75;	0,0;	0,0
658,2847290039062;	357,75;	0,0;	0,0
658,3441772460938;	342,25;	0,0;	0,0
658,4036865234375;	365,25;	0,0;	0,0
658,4630737304688;	354,75;	0,0;	0,0
658,5225830078125;	359,75;	0,0;	0,0
658,5819702148438;	335,75;	0,0;	0,0
658,6412963867188;	369,0;	0,0;	0,0
658,70068359375;	322,5;	0,0;	0,0
658,760009765625;	336,25;	0,0;	0,0
658,8193359375;	320,25;	0,0;	0,0
658,8787231445312;	336,25;	0,0;	0,0
658,93798828125;	323,5;	0,0;	0,0
658,997314453125;	321,75;	0,0;	0,0
659,0565795898438;	295,5;	0,0;	0,0
659,1157836914062;	319,5;	0,0;	0,0
659,1751098632812;	340,5;	0,0;	0,0
659,234375;	388,25;	0,0;	0,0
659,2935180664062;	463,25;	0,0;	0,0
659,3527221679688;	456,75;	0,0;	0,0
659,4119262695312;	360,75;	0,0;	0,0
659,4710693359375;	341,75;	0,0;	0,0
659,5302124023438;	328,5;	0,0;	0,0
659,5894165039062;	314,5;	0,0;	0,0
659,6484985351562;	325,25;	0,0;	0,0
659,7076416015625;	338,25;	0,0;	0,0
659,7666625976562;	309,75;	0,0;	0,0
659,8257446289062;	323,25;	0,0;	0,0
659,8848266601562;	316,25;	0,0;	0,0
659,94384765625;	289,0;	0,0;	0,0
660,0029296875;	325,5;	0,0;	0,0
660,0619506835938;	310,25;	0,0;	0,0
660,1209106445312;	304,5;	0,0;	0,0
660,179931640625;	310,0;	0,0;	0,0
660,2389526367188;	320,0;	0,0;	0,0
660,2978515625;	304,25;	0,0;	0,0
660,3568115234375;	314,0;	0,0;	0,0
660,415771484375;	288,75;	0,0;	0,0
660,474609375;	311,5;	0,0;	0,0
660,5335693359375;	300,0;	0,0;	0,0
660,5924072265625;	301,0;	0,0;	0,0
660,6512451171875;	300,5;	0,0;	0,0
660,7101440429688;	311,25;	0,0;	0,0
660,7689208984375;	301,25;	0,0;	0,0
660,8277587890625;	277,5;	0,0;	0,0
660,8865966796875;	294,5;	0,0;	0,0
660,9453125;	308,25;	0,0;	0,0
661,004150390625;	299,0;	0,0;	0,0
661,0628662109375;	290,5;	0,0;	0,0
661,12158203125;	293,75;	0,0;	0,0
661,1802978515625;	309,75;	0,0;	0,0
661,2390747070312;	295,0;	0,0;	0,0
661,2976684570312;	288,0;	0,0;	0,0
661,3564453125;	311,75;	0,0;	0,0
661,4151000976562;	296,25;	0,0;	0,0
661,4737548828125;	316,25;	0,0;	0,0
661,5323486328125;	313,5;	0,0;	0,0
661,5909423828125;	287,0;	0,0;	0,0
661,6495361328125;	300,75;	0,0;	0,0
661,7081298828125;	283,0;	0,0;	0,0
661,7667236328125;	288,0;	0,0;	0,0
661,8252563476562;	302,75;	0,0;	0,0
661,8837890625;	313,0;	0,0;	0,0
661,9422607421875;	284,75;	0,0;	0,0
662,0008544921875;	323,5;	0,0;	0,0
662,0593872070312;	293,5;	0,0;	0,0
662,1177978515625;	283,75;	0,0;	0,0
662,17626953125;	305,0;	0,0;	0,0
662,2346801757812;	268,75;	0,0;	0,0
662,2930908203125;	288,25;	0,0;	0,0
662,3515625;	325,75;	0,0;	0,0
662,4099731445312;	295,25;	0,0;	0,0
662,4683227539062;	295,0;	0,0;	0,0
662,5267333984375;	323,25;	0,0;	0,0
662,5850830078125;	310,0;	0,0;	0,0
662,6433715820312;	318,75;	0,0;	0,0
662,7017211914062;	289,5;	0,0;	0,0
662,760009765625;	300,5;	0,0;	0,0
662,8182983398438;	292,5;	0,0;	0,0
662,8765869140625;	299,5;	0,0;	0,0
662,9348754882812;	304,25;	0,0;	0,0
662,9930419921875;	308,25;	0,0;	0,0
663,0513305664062;	291,75;	0,0;	0,0
663,1094970703125;	317,75;	0,0;	0,0
663,167724609375;	302,75;	0,0;	0,0
663,2259521484375;	317,0;	0,0;	0,0
663,2840576171875;	295,5;	0,0;	0,0
663,3421630859375;	334,25;	0,0;	0,0
663,400390625;	310,75;	0,0;	0,0
663,4584350585938;	321,25;	0,0;	0,0
663,5166015625;	304,5;	0,0;	0,0
663,5746459960938;	312,25;	0,0;	0,0
663,6327514648438;	302,0;	0,0;	0,0
663,6907348632812;	278,25;	0,0;	0,0
663,7488403320312;	308,5;	0,0;	0,0
663,806884765625;	313,25;	0,0;	0,0
663,8648681640625;	308,5;	0,0;	0,0
663,9229125976562;	318,0;	0,0;	0,0
663,9808349609375;	318,0;	0,0;	0,0
664,038818359375;	318,25;	0,0;	0,0
664,0966796875;	325,5;	0,0;	0,0
664,1546630859375;	297,75;	0,0;	0,0
664,2125854492188;	311,0;	0,0;	0,0
664,2705078125;	322,0;	0,0;	0,0
664,328369140625;	297,5;	0,0;	0,0
664,38623046875;	302,25;	0,0;	0,0
664,444091796875;	299,25;	0,0;	0,0
664,501953125;	339,0;	0,0;	0,0
664,5597534179688;	330,5;	0,0;	0,0
664,6175537109375;	300,25;	0,0;	0,0
664,6753540039062;	313,0;	0,0;	0,0
664,733154296875;	310,0;	0,0;	0,0
664,7908935546875;	327,0;	0,0;	0,0
664,8486938476562;	309,25;	0,0;	0,0
664,9064331054688;	334,5;	0,0;	0,0
664,964111328125;	310,0;	0,0;	0,0
665,0217895507812;	321,0;	0,0;	0,0
665,0794677734375;	324,5;	0,0;	0,0
665,1371459960938;	329,0;	0,0;	0,0
665,1947631835938;	315,25;	0,0;	0,0
665,2523803710938;	311,5;	0,0;	0,0
665,3099975585938;	313,0;	0,0;	0,0
665,36767578125;	318,25;	0,0;	0,0
665,4252319335938;	326,0;	0,0;	0,0
665,4827880859375;	312,5;	0,0;	0,0
665,5404052734375;	309,25;	0,0;	0,0
665,597900390625;	320,5;	0,0;	0,0
665,6554565429688;	318,5;	0,0;	0,0
665,7130126953125;	312,5;	0,0;	0,0
665,7704467773438;	311,25;	0,0;	0,0
665,8279418945312;	321,0;	0,0;	0,0
665,8854370117188;	305,75;	0,0;	0,0
665,9428100585938;	299,75;	0,0;	0,0
666,0003051757812;	290,25;	0,0;	0,0
666,0576782226562;	316,5;	0,0;	0,0
666,1150512695312;	311,5;	0,0;	0,0
666,1724853515625;	324,25;	0,0;	0,0
666,2298583984375;	307,75;	0,0;	0,0
666,2871704101562;	330,5;	0,0;	0,0
666,3446044921875;	343,75;	0,0;	0,0
666,4019165039062;	328,75;	0,0;	0,0
666,4591674804688;	319,5;	0,0;	0,0
666,5165405273438;	306,75;	0,0;	0,0
666,57373046875;	298,75;	0,0;	0,0
666,6310424804688;	282,75;	0,0;	0,0
666,6882934570312;	290,25;	0,0;	0,0
666,7454833984375;	319,25;	0,0;	0,0
666,802734375;	302,75;	0,0;	0,0
666,8599243164062;	314,25;	0,0;	0,0
666,9171142578125;	312,75;	0,0;	0,0
666,9742431640625;	305,0;	0,0;	0,0
667,0314331054688;	291,0;	0,0;	0,0
667,0885620117188;	295,25;	0,0;	0,0
667,1456909179688;	315,5;	0,0;	0,0
667,2026977539062;	284,25;	0,0;	0,0
667,2598876953125;	328,5;	0,0;	0,0
667,3169555664062;	316,5;	0,0;	0,0
667,3739624023438;	315,5;	0,0;	0,0
667,4310302734375;	304,75;	0,0;	0,0
667,488037109375;	290,5;	0,0;	0,0
667,5451049804688;	304,75;	0,0;	0,0
667,6021118164062;	347,25;	0,0;	0,0
667,6591186523438;	296,75;	0,0;	0,0
667,7160034179688;	359,75;	0,0;	0,0
667,77294921875;	444,75;	0,0;	0,0
667,8299560546875;	482,75;	0,0;	0,0
667,8867797851562;	316,5;	0,0;	0,0
667,9437255859375;	314,25;	0,0;	0,0
668,0006103515625;	287,25;	0,0;	0,0
668,0574951171875;	302,75;	0,0;	0,0
668,1143798828125;	322,75;	0,0;	0,0
668,171142578125;	306,25;	0,0;	0,0
668,2279663085938;	314,0;	0,0;	0,0
668,2847900390625;	308,5;	0,0;	0,0
668,341552734375;	292,25;	0,0;	0,0
668,3983764648438;	309,25;	0,0;	0,0
668,4552001953125;	292,5;	0,0;	0,0
668,5118408203125;	299,0;	0,0;	0,0
668,568603515625;	284,75;	0,0;	0,0
668,6253662109375;	306,0;	0,0;	0,0
668,6819458007812;	305,5;	0,0;	0,0
668,7387084960938;	291,75;	0,0;	0,0
668,79541015625;	312,5;	0,0;	0,0
668,8519897460938;	313,25;	0,0;	0,0
668,90869140625;	276,5;	0,0;	0,0
668,9652709960938;	326,75;	0,0;	0,0
669,0218505859375;	278,25;	0,0;	0,0
669,0784301757812;	277,75;	0,0;	0,0
669,1350708007812;	320,5;	0,0;	0,0
669,1915893554688;	302,25;	0,0;	0,0
669,2481689453125;	304,25;	0,0;	0,0
669,3046264648438;	299,5;	0,0;	0,0
669,3611450195312;	302,25;	0,0;	0,0
669,4176635742188;	300,75;	0,0;	0,0
669,47412109375;	279,0;	0,0;	0,0
669,5305786132812;	302,5;	0,0;	0,0
669,5870971679688;	298,75;	0,0;	0,0
669,6434326171875;	314,5;	0,0;	0,0
669,6998901367188;	314,75;	0,0;	0,0
669,7562866210938;	318,5;	0,0;	0,0
669,8126220703125;	308,25;	0,0;	0,0
669,8690795898438;	297,25;	0,0;	0,0
669,9254150390625;	346,25;	0,0;	0,0
669,981689453125;	299,75;	0,0;	0,0
670,0380249023438;	345,25;	0,0;	0,0
670,0943603515625;	301,0;	0,0;	0,0
670,150634765625;	293,5;	0,0;	0,0
670,2069091796875;	338,5;	0,0;	0,0
670,2631225585938;	338,75;	0,0;	0,0
670,3193969726562;	347,5;	0,0;	0,0
670,3756713867188;	356,5;	0,0;	0,0
670,4318237304688;	404,75;	0,0;	0,0
670,488037109375;	442,25;	0,0;	0,0
670,544189453125;	574,75;	0,0;	0,0
670,600341796875;	957,75;	0,0;	0,0
670,656494140625;	1866,25;	0,0;	0,0
670,7127075195312;	4530,25;	0,0;	0,0
670,768798828125;	10531,0;	0,0;	0,0
670,8248291015625;	8094,75;	0,0;	0,0
670,8809814453125;	1522,25;	0,0;	0,0
670,93701171875;	570,5;	0,0;	0,0
670,9930419921875;	434,5;	0,0;	0,0
671,0491333007812;	358,0;	0,0;	0,0
671,1051025390625;	343,25;	0,0;	0,0
671,1611328125;	329,0;	0,0;	0,0
671,2171020507812;	327,25;	0,0;	0,0
671,2730712890625;	338,75;	0,0;	0,0
671,3291015625;	362,5;	0,0;	0,0
671,3849487304688;	330,5;	0,0;	0,0
671,44091796875;	308,0;	0,0;	0,0
671,496826171875;	293,0;	0,0;	0,0
671,5526733398438;	298,75;	0,0;	0,0
671,6085815429688;	299,75;	0,0;	0,0
671,6644897460938;	296,75;	0,0;	0,0
671,7202758789062;	333,0;	0,0;	0,0
671,7761840820312;	330,5;	0,0;	0,0
671,8319702148438;	311,75;	0,0;	0,0
671,8876953125;	317,75;	0,0;	0,0
671,9435424804688;	310,25;	0,0;	0,0
671,9993286132812;	307,0;	0,0;	0,0
672,0550537109375;	312,25;	0,0;	0,0
672,1107788085938;	301,75;	0,0;	0,0
672,16650390625;	324,25;	0,0;	0,0
672,22216796875;	306,5;	0,0;	0,0
672,2778930664062;	325,5;	0,0;	0,0
672,3335571289062;	314,0;	0,0;	0,0
672,3892211914062;	324,25;	0,0;	0,0
672,4448852539062;	297,5;	0,0;	0,0
672,50048828125;	306,25;	0,0;	0,0
672,5560913085938;	302,25;	0,0;	0,0
672,6116943359375;	296,0;	0,0;	0,0
672,6672973632812;	320,0;	0,0;	0,0
672,7228393554688;	299,25;	0,0;	0,0
672,7783813476562;	296,5;	0,0;	0,0
672,8338623046875;	305,0;	0,0;	0,0
672,889404296875;	312,0;	0,0;	0,0
672,9449462890625;	335,0;	0,0;	0,0
673,0003662109375;	283,5;	0,0;	0,0
673,0558471679688;	294,75;	0,0;	0,0
673,111328125;	299,0;	0,0;	0,0
673,166748046875;	313,0;	0,0;	0,0
673,22216796875;	316,0;	0,0;	0,0
673,277587890625;	315,25;	0,0;	0,0
673,3329467773438;	308,25;	0,0;	0,0
673,3883666992188;	322,5;	0,0;	0,0
673,4436645507812;	316,0;	0,0;	0,0
673,4990234375;	323,5;	0,0;	0,0
673,5543823242188;	314,5;	0,0;	0,0
673,6096801757812;	310,0;	0,0;	0,0
673,6649780273438;	314,75;	0,0;	0,0
673,72021484375;	297,5;	0,0;	0,0
673,7755126953125;	303,75;	0,0;	0,0
673,8307495117188;	306,25;	0,0;	0,0
673,885986328125;	313,5;	0,0;	0,0
673,9412231445312;	281,75;	0,0;	0,0
673,9963989257812;	271,25;	0,0;	0,0
674,051513671875;	326,75;	0,0;	0,0
674,106689453125;	324,5;	0,0;	0,0
674,161865234375;	292,25;	0,0;	0,0
674,2169799804688;	318,25;	0,0;	0,0
674,2721557617188;	271,0;	0,0;	0,0
674,3272705078125;	294,75;	0,0;	0,0
674,38232421875;	284,25;	0,0;	0,0
674,4373779296875;	300,0;	0,0;	0,0
674,4924926757812;	319,5;	0,0;	0,0
674,5474853515625;	279,5;	0,0;	0,0
674,6025390625;	294,25;	0,0;	0,0
674,6575317382812;	306,5;	0,0;	0,0
674,7124633789062;	310,0;	0,0;	0,0
674,7674560546875;	305,75;	0,0;	0,0
674,8224487304688;	312,75;	0,0;	0,0
674,8773803710938;	324,5;	0,0;	0,0
674,9323120117188;	305,75;	0,0;	0,0
674,9871826171875;	315,0;	0,0;	0,0
675,0420532226562;	331,25;	0,0;	0,0
675,0969848632812;	284,75;	0,0;	0,0
675,15185546875;	299,75;	0,0;	0,0
675,2066650390625;	281,75;	0,0;	0,0
675,2615356445312;	301,5;	0,0;	0,0
675,3162841796875;	280,5;	0,0;	0,0
675,3711547851562;	294,75;	0,0;	0,0
675,4259033203125;	310,25;	0,0;	0,0
675,4806518554688;	297,25;	0,0;	0,0
675,535400390625;	301,25;	0,0;	0,0
675,5902099609375;	310,75;	0,0;	0,0
675,6448364257812;	262,75;	0,0;	0,0
675,6996459960938;	271,5;	0,0;	0,0
675,7543334960938;	299,0;	0,0;	0,0
675,8088989257812;	281,5;	0,0;	0,0
675,8636474609375;	279,75;	0,0;	0,0
675,9182739257812;	300,25;	0,0;	0,0
675,9728393554688;	272,25;	0,0;	0,0
676,0274658203125;	268,5;	0,0;	0,0
676,0820922851562;	304,25;	0,0;	0,0
676,1366577148438;	303,75;	0,0;	0,0
676,1912231445312;	275,0;	0,0;	0,0
676,2457275390625;	273,0;	0,0;	0,0
676,30029296875;	309,75;	0,0;	0,0
676,3547973632812;	293,0;	0,0;	0,0
676,4092407226562;	301,25;	0,0;	0,0
676,4637451171875;	312,5;	0,0;	0,0
676,5182495117188;	290,5;	0,0;	0,0
676,5726928710938;	267,75;	0,0;	0,0
676,6271362304688;	287,0;	0,0;	0,0
676,6815795898438;	296,0;	0,0;	0,0
676,7359619140625;	289,25;	0,0;	0,0
676,790283203125;	279,25;	0,0;	0,0
676,8447265625;	328,25;	0,0;	0,0
676,8990478515625;	318,0;	0,0;	0,0
676,9534301757812;	288,0;	0,0;	0,0
677,0076904296875;	305,5;	0,0;	0,0
677,06201171875;	283,5;	0,0;	0,0
677,1163330078125;	269,5;	0,0;	0,0
677,1705322265625;	285,0;	0,0;	0,0
677,2247924804688;	289,5;	0,0;	0,0
677,279052734375;	294,75;	0,0;	0,0
677,333251953125;	284,25;	0,0;	0,0
677,3875122070312;	282,25;	0,0;	0,0
677,4417114257812;	288,5;	0,0;	0,0
677,4957885742188;	278,75;	0,0;	0,0
677,550048828125;	275,75;	0,0;	0,0
677,6041870117188;	298,5;	0,0;	0,0
677,6583251953125;	304,5;	0,0;	0,0
677,71240234375;	297,25;	0,0;	0,0
677,7665405273438;	307,25;	0,0;	0,0
677,8206176757812;	308,25;	0,0;	0,0
677,8746948242188;	293,25;	0,0;	0,0
677,9287109375;	274,25;	0,0;	0,0
677,9827270507812;	285,5;	0,0;	0,0
678,0367431640625;	269,5;	0,0;	0,0
678,0906982421875;	298,5;	0,0;	0,0
678,144775390625;	295,5;	0,0;	0,0
678,19873046875;	277,0;	0,0;	0,0
678,2526245117188;	281,25;	0,0;	0,0
678,3065795898438;	275,25;	0,0;	0,0
678,3605346679688;	291,25;	0,0;	0,0
678,4144287109375;	287,75;	0,0;	0,0
678,4683227539062;	276,5;	0,0;	0,0
678,5221557617188;	266,5;	0,0;	0,0
678,5759887695312;	290,0;	0,0;	0,0
678,6298828125;	280,5;	0,0;	0,0
678,6837158203125;	303,25;	0,0;	0,0
678,7374877929688;	279,25;	0,0;	0,0
678,791259765625;	281,75;	0,0;	0,0
678,8450927734375;	255,5;	0,0;	0,0
678,8988037109375;	267,25;	0,0;	0,0
678,9525756835938;	290,0;	0,0;	0,0
679,0062866210938;	287,0;	0,0;	0,0
679,0599975585938;	264,75;	0,0;	0,0
679,1137084960938;	280,75;	0,0;	0,0
679,1674194335938;	259,0;	0,0;	0,0
679,2210083007812;	265,0;	0,0;	0,0
679,2747192382812;	291,0;	0,0;	0,0
679,3283081054688;	274,75;	0,0;	0,0
679,3819580078125;	279,25;	0,0;	0,0
679,435546875;	271,0;	0,0;	0,0
679,4890747070312;	274,0;	0,0;	0,0
679,542724609375;	265,5;	0,0;	0,0
679,5962524414062;	280,25;	0,0;	0,0
679,6497192382812;	290,0;	0,0;	0,0
679,7032470703125;	285,0;	0,0;	0,0
679,7568359375;	293,0;	0,0;	0,0
679,810302734375;	309,75;	0,0;	0,0
679,86376953125;	281,0;	0,0;	0,0
679,9171752929688;	271,5;	0,0;	0,0
679,9706420898438;	270,5;	0,0;	0,0
680,0240478515625;	286,0;	0,0;	0,0
680,0775146484375;	284,75;	0,0;	0,0
680,130859375;	271,0;	0,0;	0,0
680,1842651367188;	280,25;	0,0;	0,0
680,237548828125;	267,25;	0,0;	0,0
680,2909545898438;	297,0;	0,0;	0,0
680,3442993164062;	293,75;	0,0;	0,0
680,3975830078125;	276,0;	0,0;	0,0
680,4508666992188;	285,0;	0,0;	0,0
680,504150390625;	268,0;	0,0;	0,0
680,557373046875;	270,5;	0,0;	0,0
680,6106567382812;	300,75;	0,0;	0,0
680,6639404296875;	294,0;	0,0;	0,0
680,717041015625;	285,0;	0,0;	0,0
680,7703247070312;	275,5;	0,0;	0,0
680,8234252929688;	275,75;	0,0;	0,0
680,8766479492188;	292,25;	0,0;	0,0
680,9297485351562;	283,5;	0,0;	0,0
680,9829711914062;	288,0;	0,0;	0,0
681,0360107421875;	274,75;	0,0;	0,0
681,0891723632812;	283,25;	0,0;	0,0
681,1421508789062;	266,5;	0,0;	0,0
681,1953125;	260,75;	0,0;	0,0
681,2483520507812;	285,5;	0,0;	0,0
681,3013305664062;	279,25;	0,0;	0,0
681,3544311523438;	274,5;	0,0;	0,0
681,4074096679688;	280,25;	0,0;	0,0
681,4603271484375;	260,75;	0,0;	0,0
681,5133056640625;	289,25;	0,0;	0,0
681,5662841796875;	264,5;	0,0;	0,0
681,6192626953125;	265,75;	0,0;	0,0
681,6721801757812;	287,0;	0,0;	0,0
681,72509765625;	270,25;	0,0;	0,0
681,7779541015625;	313,0;	0,0;	0,0
681,8308715820312;	269,75;	0,0;	0,0
681,8837280273438;	275,25;	0,0;	0,0
681,9365234375;	278,5;	0,0;	0,0
681,9893798828125;	294,0;	0,0;	0,0
682,0421142578125;	254,5;	0,0;	0,0
682,0949096679688;	292,75;	0,0;	0,0
682,1477661132812;	260,0;	0,0;	0,0
682,2005004882812;	283,25;	0,0;	0,0
682,2532958984375;	278,0;	0,0;	0,0
682,3059692382812;	264,25;	0,0;	0,0
682,358642578125;	288,75;	0,0;	0,0
682,411376953125;	288,0;	0,0;	0,0
682,4640502929688;	290,0;	0,0;	0,0
682,5167236328125;	268,5;	0,0;	0,0
682,5693359375;	270,0;	0,0;	0,0
682,6220092773438;	252,25;	0,0;	0,0
682,674560546875;	261,0;	0,0;	0,0
682,7272338867188;	279,0;	0,0;	0,0
682,77978515625;	292,75;	0,0;	0,0
682,8323974609375;	324,5;	0,0;	0,0
682,8849487304688;	278,0;	0,0;	0,0
682,9373779296875;	291,0;	0,0;	0,0
682,989990234375;	270,0;	0,0;	0,0
683,04248046875;	287,75;	0,0;	0,0
683,0949096679688;	313,25;	0,0;	0,0
683,1473999023438;	292,0;	0,0;	0,0
683,1998901367188;	274,0;	0,0;	0,0
683,2523193359375;	283,5;	0,0;	0,0
683,3047485351562;	294,75;	0,0;	0,0
683,357177734375;	265,0;	0,0;	0,0
683,4094848632812;	284,0;	0,0;	0,0
683,4619140625;	267,5;	0,0;	0,0
683,5142822265625;	273,25;	0,0;	0,0
683,5665893554688;	286,75;	0,0;	0,0
683,6189575195312;	276,5;	0,0;	0,0
683,6712646484375;	294,5;	0,0;	0,0
683,7235107421875;	300,75;	0,0;	0,0
683,7757568359375;	258,5;	0,0;	0,0
683,8280029296875;	274,25;	0,0;	0,0
683,8803100585938;	284,75;	0,0;	0,0
683,9325561523438;	276,25;	0,0;	0,0
683,9846801757812;	277,25;	0,0;	0,0
684,0369262695312;	278,75;	0,0;	0,0
684,0891723632812;	303,0;	0,0;	0,0
684,1412353515625;	312,25;	0,0;	0,0
684,1934204101562;	305,0;	0,0;	0,0
684,2455444335938;	304,5;	0,0;	0,0
684,2976684570312;	287,75;	0,0;	0,0
684,3497314453125;	308,0;	0,0;	0,0
684,40185546875;	307,0;	0,0;	0,0
684,453857421875;	263,0;	0,0;	0,0
684,5059204101562;	286,75;	0,0;	0,0
684,5579833984375;	288,25;	0,0;	0,0
684,6099853515625;	281,5;	0,0;	0,0
684,6619873046875;	268,5;	0,0;	0,0
684,7139892578125;	289,0;	0,0;	0,0
684,7659301757812;	282,75;	0,0;	0,0
684,8179321289062;	286,0;	0,0;	0,0
684,869873046875;	272,75;	0,0;	0,0
684,9216918945312;	267,75;	0,0;	0,0
684,9736328125;	261,0;	0,0;	0,0
685,0255126953125;	267,75;	0,0;	0,0
685,077392578125;	313,0;	0,0;	0,0
685,1292724609375;	290,75;	0,0;	0,0
685,1810302734375;	261,75;	0,0;	0,0
685,23291015625;	276,5;	0,0;	0,0
685,2847290039062;	290,75;	0,0;	0,0
685,3364868164062;	278,0;	0,0;	0,0
685,3882446289062;	264,25;	0,0;	0,0
685,4400024414062;	269,25;	0,0;	0,0
685,4917602539062;	302,75;	0,0;	0,0
685,5435180664062;	332,25;	0,0;	0,0
685,5951538085938;	278,0;	0,0;	0,0
685,6468505859375;	289,0;	0,0;	0,0
685,6985473632812;	302,5;	0,0;	0,0
685,750244140625;	309,25;	0,0;	0,0
685,8018798828125;	294,5;	0,0;	0,0
685,8534545898438;	277,5;	0,0;	0,0
685,905029296875;	295,5;	0,0;	0,0
685,9566650390625;	287,25;	0,0;	0,0
686,0082397460938;	276,0;	0,0;	0,0
686,059814453125;	268,75;	0,0;	0,0
686,111328125;	271,75;	0,0;	0,0
686,162841796875;	293,75;	0,0;	0,0
686,21435546875;	274,0;	0,0;	0,0
686,265869140625;	299,0;	0,0;	0,0
686,3173828125;	269,75;	0,0;	0,0
686,3687744140625;	270,25;	0,0;	0,0
686,4202270507812;	294,75;	0,0;	0,0
686,4716186523438;	289,0;	0,0;	0,0
686,5230712890625;	296,0;	0,0;	0,0
686,574462890625;	271,25;	0,0;	0,0
686,6258544921875;	289,0;	0,0;	0,0
686,6771850585938;	269,75;	0,0;	0,0
686,7285766601562;	270,5;	0,0;	0,0
686,7799072265625;	286,0;	0,0;	0,0
686,8312377929688;	267,0;	0,0;	0,0
686,882568359375;	274,5;	0,0;	0,0
686,9337768554688;	276,25;	0,0;	0,0
686,9850463867188;	258,75;	0,0;	0,0
687,0363159179688;	283,0;	0,0;	0,0
687,0875244140625;	292,0;	0,0;	0,0
687,1387329101562;	270,25;	0,0;	0,0
687,1900024414062;	265,5;	0,0;	0,0
687,2410888671875;	302,25;	0,0;	0,0
687,2922973632812;	287,0;	0,0;	0,0
687,3434448242188;	241,0;	0,0;	0,0
687,3945922851562;	254,0;	0,0;	0,0
687,4457397460938;	288,75;	0,0;	0,0
687,4968872070312;	277,5;	0,0;	0,0
687,5479125976562;	262,0;	0,0;	0,0
687,5989379882812;	260,0;	0,0;	0,0
687,6500244140625;	270,5;	0,0;	0,0
687,7010498046875;	263,25;	0,0;	0,0
687,7520751953125;	285,75;	0,0;	0,0
687,8030395507812;	266,0;	0,0;	0,0
687,8540649414062;	296,0;	0,0;	0,0
687,905029296875;	274,75;	0,0;	0,0
687,9559936523438;	273,0;	0,0;	0,0
688,0069580078125;	314,75;	0,0;	0,0
688,0579223632812;	266,5;	0,0;	0,0
688,1087646484375;	268,0;	0,0;	0,0
688,1596069335938;	292,25;	0,0;	0,0
688,2105102539062;	264,5;	0,0;	0,0
688,2613525390625;	275,25;	0,0;	0,0
688,3121948242188;	273,25;	0,0;	0,0
688,3630981445312;	257,5;	0,0;	0,0
688,4138793945312;	288,5;	0,0;	0,0
688,464599609375;	300,25;	0,0;	0,0
688,515380859375;	269,5;	0,0;	0,0
688,566162109375;	274,0;	0,0;	0,0
688,6168823242188;	284,25;	0,0;	0,0
688,6676025390625;	291,75;	0,0;	0,0
688,7183227539062;	259,0;	0,0;	0,0
688,76904296875;	260,75;	0,0;	0,0
688,8196411132812;	274,5;	0,0;	0,0
688,870361328125;	273,0;	0,0;	0,0
688,9210205078125;	259,25;	0,0;	0,0
688,9716186523438;	290,5;	0,0;	0,0
689,0222778320312;	297,75;	0,0;	0,0
689,0728149414062;	263,75;	0,0;	0,0
689,1234130859375;	280,0;	0,0;	0,0
689,1740112304688;	258,5;	0,0;	0,0
689,2245483398438;	289,75;	0,0;	0,0
689,2750244140625;	262,25;	0,0;	0,0
689,3255615234375;	281,75;	0,0;	0,0
689,3759765625;	269,5;	0,0;	0,0
689,426513671875;	265,75;	0,0;	0,0
689,4769897460938;	286,75;	0,0;	0,0
689,5274658203125;	284,0;	0,0;	0,0
689,5778198242188;	257,75;	0,0;	0,0
689,6282958984375;	272,75;	0,0;	0,0
689,6786499023438;	268,25;	0,0;	0,0
689,7290649414062;	260,75;	0,0;	0,0
689,7794799804688;	271,5;	0,0;	0,0
689,8297119140625;	288,75;	0,0;	0,0
689,8800659179688;	290,25;	0,0;	0,0
689,930419921875;	290,5;	0,0;	0,0
689,9806518554688;	248,75;	0,0;	0,0
690,031005859375;	281,25;	0,0;	0,0
690,081298828125;	286,75;	0,0;	0,0
690,1314697265625;	306,0;	0,0;	0,0
690,1817626953125;	290,25;	0,0;	0,0
690,23193359375;	269,25;	0,0;	0,0
690,2821655273438;	306,5;	0,0;	0,0
690,3323364257812;	294,75;	0,0;	0,0
690,3825073242188;	315,5;	0,0;	0,0
690,4326782226562;	261,5;	0,0;	0,0
690,4827880859375;	290,5;	0,0;	0,0
690,5328369140625;	266,25;	0,0;	0,0
690,5829467773438;	262,75;	0,0;	0,0
690,6331176757812;	269,25;	0,0;	0,0
690,6831665039062;	280,75;	0,0;	0,0
690,7332153320312;	290,75;	0,0;	0,0
690,7832641601562;	255,5;	0,0;	0,0
690,833251953125;	291,75;	0,0;	0,0
690,8832397460938;	277,5;	0,0;	0,0
690,9332885742188;	283,25;	0,0;	0,0
690,9832153320312;	328,25;	0,0;	0,0
691,033203125;	360,75;	0,0;	0,0
691,0830078125;	399,75;	0,0;	0,0
691,1329956054688;	350,75;	0,0;	0,0
691,1829223632812;	287,5;	0,0;	0,0
691,2328491210938;	283,0;	0,0;	0,0
691,2826538085938;	267,75;	0,0;	0,0
691,33251953125;	257,25;	0,0;	0,0
691,38232421875;	274,25;	0,0;	0,0
691,43212890625;	273,25;	0,0;	0,0
691,4819946289062;	287,0;	0,0;	0,0
691,53173828125;	279,75;	0,0;	0,0
691,58154296875;	304,5;	0,0;	0,0
691,6312866210938;	301,0;	0,0;	0,0
691,6810302734375;	280,5;	0,0;	0,0
691,730712890625;	292,0;	0,0;	0,0
691,7804565429688;	263,25;	0,0;	0,0
691,8301391601562;	281,75;	0,0;	0,0
691,8798217773438;	278,0;	0,0;	0,0
691,929443359375;	271,75;	0,0;	0,0
691,9790649414062;	304,5;	0,0;	0,0
692,0286865234375;	279,0;	0,0;	0,0
692,0783081054688;	292,25;	0,0;	0,0
692,1278686523438;	288,5;	0,0;	0,0
692,177490234375;	271,25;	0,0;	0,0
692,2269897460938;	273,25;	0,0;	0,0
692,2765502929688;	284,5;	0,0;	0,0
692,3261108398438;	282,0;	0,0;	0,0
692,3755493164062;	265,75;	0,0;	0,0
692,4251098632812;	283,0;	0,0;	0,0
692,474609375;	284,5;	0,0;	0,0
692,5240478515625;	279,25;	0,0;	0,0
692,5734252929688;	277,5;	0,0;	0,0
692,6229248046875;	286,25;	0,0;	0,0
692,6723022460938;	274,0;	0,0;	0,0
692,7216796875;	264,75;	0,0;	0,0
692,7711181640625;	261,5;	0,0;	0,0
692,8203735351562;	271,25;	0,0;	0,0
692,8697509765625;	275,5;	0,0;	0,0
692,9190673828125;	275,5;	0,0;	0,0
692,9683837890625;	260,75;	0,0;	0,0
693,0177001953125;	284,25;	0,0;	0,0
693,06689453125;	257,5;	0,0;	0,0
693,1162109375;	284,75;	0,0;	0,0
693,1654663085938;	269,25;	0,0;	0,0
693,214599609375;	291,75;	0,0;	0,0
693,2638549804688;	276,5;	0,0;	0,0
693,3130493164062;	293,75;	0,0;	0,0
693,3622436523438;	268,75;	0,0;	0,0
693,4114379882812;	268,5;	0,0;	0,0
693,4605712890625;	264,25;	0,0;	0,0
693,5096435546875;	277,25;	0,0;	0,0
693,5587768554688;	258,25;	0,0;	0,0
693,6078491210938;	280,25;	0,0;	0,0
693,6568603515625;	312,25;	0,0;	0,0
693,7059936523438;	317,0;	0,0;	0,0
693,7550659179688;	331,5;	0,0;	0,0
693,8040771484375;	417,5;	0,0;	0,0
693,85302734375;	495,0;	0,0;	0,0
693,9020385742188;	407,5;	0,0;	0,0
693,9510498046875;	343,5;	0,0;	0,0
694,0;	285,75;	0,0;	0,0
694,0488891601562;	273,25;	0,0;	0,0
694,0978393554688;	258,0;	0,0;	0,0
694,1467895507812;	277,75;	0,0;	0,0
694,1956176757812;	273,75;	0,0;	0,0
694,2445068359375;	262,75;	0,0;	0,0
694,2933959960938;	266,5;	0,0;	0,0
694,3421630859375;	268,5;	0,0;	0,0
694,3910522460938;	296,25;	0,0;	0,0
694,4398803710938;	277,75;	0,0;	0,0
694,4886474609375;	301,75;	0,0;	0,0
694,5374145507812;	273,25;	0,0;	0,0
694,5862426757812;	275,25;	0,0;	0,0
694,6349487304688;	276,0;	0,0;	0,0
694,6836547851562;	273,75;	0,0;	0,0
694,7323608398438;	292,75;	0,0;	0,0
694,7810668945312;	276,5;	0,0;	0,0
694,8297729492188;	266,0;	0,0;	0,0
694,8784790039062;	297,0;	0,0;	0,0
694,927001953125;	288,75;	0,0;	0,0
694,9756469726562;	262,75;	0,0;	0,0
695,0242309570312;	280,75;	0,0;	0,0
695,0728759765625;	288,0;	0,0;	0,0
695,1213989257812;	309,0;	0,0;	0,0
695,1699829101562;	266,25;	0,0;	0,0
695,2185668945312;	265,75;	0,0;	0,0
695,26708984375;	249,25;	0,0;	0,0
695,3155517578125;	280,0;	0,0;	0,0
695,3640747070312;	296,5;	0,0;	0,0
695,41259765625;	283,5;	0,0;	0,0
695,4609985351562;	272,25;	0,0;	0,0
695,5094604492188;	268,5;	0,0;	0,0
695,557861328125;	275,5;	0,0;	0,0
695,6062622070312;	269,75;	0,0;	0,0
695,6547241210938;	282,25;	0,0;	0,0
695,7030639648438;	257,0;	0,0;	0,0
695,7514038085938;	263,25;	0,0;	0,0
695,7997436523438;	276,25;	0,0;	0,0
695,8480224609375;	267,25;	0,0;	0,0
695,8963623046875;	274,0;	0,0;	0,0
695,9447021484375;	262,0;	0,0;	0,0
695,992919921875;	276,5;	0,0;	0,0
696,0411987304688;	271,0;	0,0;	0,0
696,0894775390625;	265,0;	0,0;	0,0
696,1376342773438;	273,0;	0,0;	0,0
696,1859130859375;	266,0;	0,0;	0,0
696,234130859375;	267,25;	0,0;	0,0
696,2822265625;	273,0;	0,0;	0,0
696,3304443359375;	265,5;	0,0;	0,0
696,3785400390625;	272,5;	0,0;	0,0
696,4266357421875;	281,5;	0,0;	0,0
696,4747924804688;	264,0;	0,0;	0,0
696,5228881835938;	260,5;	0,0;	0,0
696,5709838867188;	290,75;	0,0;	0,0
696,6190185546875;	273,75;	0,0;	0,0
696,6670532226562;	277,25;	0,0;	0,0
696,715087890625;	253,0;	0,0;	0,0
696,7631225585938;	277,25;	0,0;	0,0
696,8110961914062;	275,25;	0,0;	0,0
696,8590698242188;	253,75;	0,0;	0,0
696,9070434570312;	264,5;	0,0;	0,0
696,9548950195312;	261,5;	0,0;	0,0
697,0029296875;	281,5;	0,0;	0,0
697,0508422851562;	271,0;	0,0;	0,0
697,0986938476562;	270,75;	0,0;	0,0
697,1466064453125;	269,75;	0,0;	0,0
697,1943969726562;	285,25;	0,0;	0,0
697,2422485351562;	286,75;	0,0;	0,0
697,2901000976562;	271,5;	0,0;	0,0
697,337890625;	264,75;	0,0;	0,0
697,3856811523438;	258,25;	0,0;	0,0
697,4334716796875;	267,0;	0,0;	0,0
697,481201171875;	264,25;	0,0;	0,0
697,5289306640625;	282,25;	0,0;	0,0
697,5767211914062;	274,75;	0,0;	0,0
697,6243896484375;	273,5;	0,0;	0,0
697,6720581054688;	268,0;	0,0;	0,0
697,7197875976562;	290,0;	0,0;	0,0
697,7673950195312;	261,0;	0,0;	0,0
697,8150634765625;	283,25;	0,0;	0,0
697,8626708984375;	277,75;	0,0;	0,0
697,9102172851562;	282,0;	0,0;	0,0
697,9578857421875;	287,0;	0,0;	0,0
698,0054931640625;	270,0;	0,0;	0,0
698,052978515625;	252,5;	0,0;	0,0
698,1005249023438;	271,25;	0,0;	0,0
698,1481323242188;	257,5;	0,0;	0,0
698,195556640625;	269,5;	0,0;	0,0
698,2431030273438;	250,5;	0,0;	0,0
698,29052734375;	271,75;	0,0;	0,0
698,3380126953125;	259,5;	0,0;	0,0
698,3854370117188;	269,25;	0,0;	0,0
698,432861328125;	280,25;	0,0;	0,0
698,480224609375;	247,25;	0,0;	0,0
698,5276489257812;	266,25;	0,0;	0,0
698,5750122070312;	262,75;	0,0;	0,0
698,6223754882812;	280,0;	0,0;	0,0
698,669677734375;	274,0;	0,0;	0,0
698,7169799804688;	276,5;	0,0;	0,0
698,7643432617188;	285,0;	0,0;	0,0
698,8116455078125;	280,25;	0,0;	0,0
698,85888671875;	267,5;	0,0;	0,0
698,9061279296875;	269,0;	0,0;	0,0
698,9534301757812;	245,75;	0,0;	0,0
699,0006103515625;	255,5;	0,0;	0,0
699,0477905273438;	258,0;	0,0;	0,0
699,094970703125;	265,25;	0,0;	0,0
699,1421508789062;	279,5;	0,0;	0,0
699,1893310546875;	254,25;	0,0;	0,0
699,2363891601562;	254,75;	0,0;	0,0
699,2835693359375;	284,0;	0,0;	0,0
699,3306884765625;	267,5;	0,0;	0,0
699,3777465820312;	277,75;	0,0;	0,0
699,4248657226562;	270,0;	0,0;	0,0
699,471923828125;	273,25;	0,0;	0,0
699,5189208984375;	258,0;	0,0;	0,0
699,5659790039062;	288,75;	0,0;	0,0
699,6129150390625;	255,25;	0,0;	0,0
699,659912109375;	267,5;	0,0;	0,0
699,7069091796875;	264,5;	0,0;	0,0
699,75390625;	270,5;	0,0;	0,0
699,80078125;	263,75;	0,0;	0,0
699,8477172851562;	285,5;	0,0;	0,0
699,8945922851562;	289,75;	0,0;	0,0
699,9414672851562;	273,75;	0,0;	0,0
699,9884033203125;	278,25;	0,0;	0,0
700,0352172851562;	280,75;	0,0;	0,0
700,0820922851562;	257,75;	0,0;	0,0
700,12890625;	261,25;	0,0;	0,0
700,1755981445312;	265,75;	0,0;	0,0
700,2224731445312;	244,5;	0,0;	0,0
700,2692260742188;	255,25;	0,0;	0,0
700,31591796875;	289,25;	0,0;	0,0
700,3626708984375;	261,0;	0,0;	0,0
700,409423828125;	245,75;	0,0;	0,0
700,4560546875;	249,75;	0,0;	0,0
700,5027465820312;	256,0;	0,0;	0,0
700,5494384765625;	283,0;	0,0;	0,0
700,5960693359375;	247,0;	0,0;	0,0
700,6427001953125;	253,75;	0,0;	0,0
700,6893310546875;	289,25;	0,0;	0,0
700,7359619140625;	263,5;	0,0;	0,0
700,7825317382812;	278,0;	0,0;	0,0
700,8291015625;	253,5;	0,0;	0,0
700,8756103515625;	271,75;	0,0;	0,0
700,9221801757812;	290,5;	0,0;	0,0
700,9686279296875;	274,75;	0,0;	0,0
701,0151977539062;	264,0;	0,0;	0,0
701,0617065429688;	261,75;	0,0;	0,0
701,1080932617188;	267,75;	0,0;	0,0
701,154541015625;	254,75;	0,0;	0,0
701,2010498046875;	259,75;	0,0;	0,0
701,2473754882812;	276,5;	0,0;	0,0
701,2937622070312;	273,75;	0,0;	0,0
701,3402099609375;	244,25;	0,0;	0,0
701,3865356445312;	272,25;	0,0;	0,0
701,432861328125;	245,25;	0,0;	0,0
701,4791870117188;	261,25;	0,0;	0,0
701,5255126953125;	271,75;	0,0;	0,0
701,5718383789062;	272,0;	0,0;	0,0
701,6181030273438;	263,0;	0,0;	0,0
701,664306640625;	277,0;	0,0;	0,0
701,7106323242188;	271,5;	0,0;	0,0
701,7567749023438;	264,25;	0,0;	0,0
701,8030395507812;	280,0;	0,0;	0,0
701,8492431640625;	252,0;	0,0;	0,0
701,8953857421875;	267,5;	0,0;	0,0
701,9415283203125;	260,25;	0,0;	0,0
701,9877319335938;	250,5;	0,0;	0,0
702,0338134765625;	272,0;	0,0;	0,0
702,0799560546875;	265,5;	0,0;	0,0
702,1260375976562;	256,75;	0,0;	0,0
702,172119140625;	256,0;	0,0;	0,0
702,2181396484375;	266,75;	0,0;	0,0
702,2642211914062;	276,5;	0,0;	0,0
702,3101806640625;	277,75;	0,0;	0,0
702,356201171875;	256,25;	0,0;	0,0
702,4022216796875;	276,0;	0,0;	0,0
702,4481811523438;	266,25;	0,0;	0,0
702,494140625;	255,75;	0,0;	0,0
702,5400390625;	273,25;	0,0;	0,0
702,5859985351562;	268,5;	0,0;	0,0
702,6318969726562;	282,5;	0,0;	0,0
702,6777954101562;	243,0;	0,0;	0,0
702,7236938476562;	262,25;	0,0;	0,0
702,76953125;	287,5;	0,0;	0,0
702,8153686523438;	249,75;	0,0;	0,0
702,8611450195312;	246,25;	0,0;	0,0
702,906982421875;	271,0;	0,0;	0,0
702,9527587890625;	260,5;	0,0;	0,0
702,99853515625;	255,25;	0,0;	0,0
703,0443115234375;	250,25;	0,0;	0,0
703,0900268554688;	261,0;	0,0;	0,0
703,1357421875;	277,5;	0,0;	0,0
703,1814575195312;	251,75;	0,0;	0,0
703,2271118164062;	256,5;	0,0;	0,0
703,2728271484375;	256,5;	0,0;	0,0
703,3184204101562;	254,0;	0,0;	0,0
703,364013671875;	262,25;	0,0;	0,0
703,4097290039062;	271,25;	0,0;	0,0
703,4552612304688;	269,25;	0,0;	0,0
703,5008544921875;	246,25;	0,0;	0,0
703,5464477539062;	267,5;	0,0;	0,0
703,5919189453125;	261,0;	0,0;	0,0
703,6375122070312;	272,5;	0,0;	0,0
703,6830444335938;	264,5;	0,0;	0,0
703,728515625;	291,0;	0,0;	0,0
703,7739868164062;	267,75;	0,0;	0,0
703,8195190429688;	275,0;	0,0;	0,0
703,8649291992188;	282,75;	0,0;	0,0
703,910400390625;	253,25;	0,0;	0,0
703,9557495117188;	252,5;	0,0;	0,0
704,0011596679688;	262,75;	0,0;	0,0
704,0465698242188;	259,5;	0,0;	0,0
704,0918579101562;	255,25;	0,0;	0,0
704,1372680664062;	262,0;	0,0;	0,0
704,1825561523438;	243,25;	0,0;	0,0
704,2278442382812;	253,25;	0,0;	0,0
704,2731323242188;	255,75;	0,0;	0,0
704,3184204101562;	270,0;	0,0;	0,0
704,3637084960938;	245,0;	0,0;	0,0
704,408935546875;	255,0;	0,0;	0,0
704,4541625976562;	251,5;	0,0;	0,0
704,4993286132812;	252,75;	0,0;	0,0
704,5445556640625;	253,0;	0,0;	0,0
704,5897827148438;	237,5;	0,0;	0,0
704,6348876953125;	257,0;	0,0;	0,0
704,6800537109375;	251,75;	0,0;	0,0
704,7252197265625;	281,75;	0,0;	0,0
704,7702026367188;	272,5;	0,0;	0,0
704,8153076171875;	242,25;	0,0;	0,0
704,8603515625;	257,0;	0,0;	0,0
704,9054565429688;	238,25;	0,0;	0,0
704,9505615234375;	243,25;	0,0;	0,0
704,9955444335938;	256,75;	0,0;	0,0
705,04052734375;	270,0;	0,0;	0,0
705,0855102539062;	253,0;	0,0;	0,0
705,1304931640625;	239,0;	0,0;	0,0
705,1754150390625;	248,0;	0,0;	0,0
705,2203979492188;	254,75;	0,0;	0,0
705,2652587890625;	241,0;	0,0;	0,0
705,3102416992188;	250,5;	0,0;	0,0
705,3551025390625;	256,5;	0,0;	0,0
705,39990234375;	244,0;	0,0;	0,0
705,4447631835938;	241,25;	0,0;	0,0
705,4896850585938;	255,0;	0,0;	0,0
705,534423828125;	295,75;	0,0;	0,0
705,5792846679688;	260,75;	0,0;	0,0
705,6240234375;	249,0;	0,0;	0,0
705,6688232421875;	237,0;	0,0;	0,0
705,7135620117188;	257,5;	0,0;	0,0
705,75830078125;	268,25;	0,0;	0,0
705,8029174804688;	251,25;	0,0;	0,0
705,84765625;	259,0;	0,0;	0,0
705,892333984375;	269,0;	0,0;	0,0
705,93701171875;	266,75;	0,0;	0,0
705,981689453125;	280,0;	0,0;	0,0
706,0262451171875;	268,5;	0,0;	0,0
706,0708618164062;	247,5;	0,0;	0,0
706,1155395507812;	258,0;	0,0;	0,0
706,1600341796875;	258,75;	0,0;	0,0
706,2046508789062;	242,0;	0,0;	0,0
706,2492065429688;	260,75;	0,0;	0,0
706,2936401367188;	260,25;	0,0;	0,0
706,3381958007812;	238,5;	0,0;	0,0
706,3826293945312;	245,75;	0,0;	0,0
706,4271240234375;	260,0;	0,0;	0,0
706,4716186523438;	243,25;	0,0;	0,0
706,5160522460938;	271,0;	0,0;	0,0
706,5604248046875;	246,25;	0,0;	0,0
706,6048583984375;	259,75;	0,0;	0,0
706,6492309570312;	268,0;	0,0;	0,0
706,693603515625;	258,5;	0,0;	0,0
706,738037109375;	271,5;	0,0;	0,0
706,7823486328125;	280,5;	0,0;	0,0
706,82666015625;	270,25;	0,0;	0,0
706,8709716796875;	244,5;	0,0;	0,0
706,9152221679688;	255,25;	0,0;	0,0
706,9595336914062;	274,75;	0,0;	0,0
707,0037841796875;	262,25;	0,0;	0,0
707,0479736328125;	256,5;	0,0;	0,0
707,0922241210938;	253,75;	0,0;	0,0
707,136474609375;	244,5;	0,0;	0,0
707,1806030273438;	263,25;	0,0;	0,0
707,2247314453125;	269,0;	0,0;	0,0
707,2689819335938;	239,25;	0,0;	0,0
707,3130493164062;	239,25;	0,0;	0,0
707,357177734375;	266,75;	0,0;	0,0
707,4012451171875;	260,5;	0,0;	0,0
707,4453125;	268,0;	0,0;	0,0
707,4893798828125;	274,0;	0,0;	0,0
707,5333862304688;	263,5;	0,0;	0,0
707,5774536132812;	253,25;	0,0;	0,0
707,6215209960938;	265,75;	0,0;	0,0
707,6654663085938;	263,0;	0,0;	0,0
707,70947265625;	272,5;	0,0;	0,0
707,75341796875;	231,25;	0,0;	0,0
707,7973022460938;	260,0;	0,0;	0,0
707,84130859375;	255,75;	0,0;	0,0
707,8851928710938;	252,0;	0,0;	0,0
707,9290771484375;	236,25;	0,0;	0,0
707,9729614257812;	272,0;	0,0;	0,0
708,016845703125;	261,0;	0,0;	0,0
708,0606079101562;	251,75;	0,0;	0,0
708,1044921875;	231,0;	0,0;	0,0
708,1482543945312;	237,0;	0,0;	0,0
708,1920166015625;	252,0;	0,0;	0,0
708,2359008789062;	282,0;	0,0;	0,0
708,2796020507812;	262,75;	0,0;	0,0
708,3233032226562;	242,0;	0,0;	0,0
708,3670654296875;	279,0;	0,0;	0,0
708,4107055664062;	264,5;	0,0;	0,0
708,4544067382812;	256,0;	0,0;	0,0
708,4981079101562;	236,75;	0,0;	0,0
708,541748046875;	235,5;	0,0;	0,0
708,5853881835938;	262,0;	0,0;	0,0
708,6289672851562;	234,25;	0,0;	0,0
708,6725463867188;	259,0;	0,0;	0,0
708,7161865234375;	256,25;	0,0;	0,0
708,7598266601562;	246,75;	0,0;	0,0
708,8032836914062;	250,5;	0,0;	0,0
708,8468627929688;	276,5;	0,0;	0,0
708,8903198242188;	261,5;	0,0;	0,0
708,933837890625;	237,0;	0,0;	0,0
708,977294921875;	266,75;	0,0;	0,0
709,020751953125;	269,25;	0,0;	0,0
709,064208984375;	263,75;	0,0;	0,0
709,107666015625;	257,75;	0,0;	0,0
709,1510009765625;	245,0;	0,0;	0,0
709,1943969726562;	288,75;	0,0;	0,0
709,23779296875;	251,0;	0,0;	0,0
709,2811279296875;	248,75;	0,0;	0,0
709,324462890625;	239,75;	0,0;	0,0
709,3678588867188;	240,5;	0,0;	0,0
709,4111328125;	255,75;	0,0;	0,0
709,4544067382812;	264,0;	0,0;	0,0
709,4977416992188;	258,75;	0,0;	0,0
709,5409545898438;	260,75;	0,0;	0,0
709,5841674804688;	254,25;	0,0;	0,0
709,6273803710938;	255,25;	0,0;	0,0
709,6705932617188;	272,5;	0,0;	0,0
709,7138061523438;	220,25;	0,0;	0,0
709,7570190429688;	245,25;	0,0;	0,0
709,8001098632812;	249,0;	0,0;	0,0
709,84326171875;	257,5;	0,0;	0,0
709,8863525390625;	254,25;	0,0;	0,0
709,929443359375;	254,5;	0,0;	0,0
709,9725952148438;	252,0;	0,0;	0,0
710,015625;	250,0;	0,0;	0,0
710,0586547851562;	234,75;	0,0;	0,0
710,1016845703125;	267,5;	0,0;	0,0
710,1446533203125;	248,75;	0,0;	0,0
710,1876831054688;	256,0;	0,0;	0,0
710,230712890625;	259,0;	0,0;	0,0
710,2736206054688;	240,75;	0,0;	0,0
710,3165893554688;	233,25;	0,0;	0,0
710,3594970703125;	246,75;	0,0;	0,0
710,4024047851562;	258,0;	0,0;	0,0
710,4453125;	250,5;	0,0;	0,0
710,4882202148438;	259,75;	0,0;	0,0
710,5310668945312;	245,5;	0,0;	0,0
710,5738525390625;	245,25;	0,0;	0,0
710,61669921875;	259,5;	0,0;	0,0
710,6594848632812;	267,75;	0,0;	0,0
710,7023315429688;	225,75;	0,0;	0,0
710,7450561523438;	261,25;	0,0;	0,0
710,7877807617188;	233,0;	0,0;	0,0
710,83056640625;	250,75;	0,0;	0,0
710,873291015625;	235,25;	0,0;	0,0
710,9159545898438;	257,25;	0,0;	0,0
710,9586791992188;	243,5;	0,0;	0,0
711,0012817382812;	240,5;	0,0;	0,0
711,0439453125;	235,25;	0,0;	0,0
711,0865478515625;	253,0;	0,0;	0,0
711,1292114257812;	244,0;	0,0;	0,0
711,1718139648438;	249,25;	0,0;	0,0
711,2144165039062;	242,75;	0,0;	0,0
711,2568969726562;	267,5;	0,0;	0,0
711,2994995117188;	264,0;	0,0;	0,0
711,342041015625;	256,0;	0,0;	0,0
711,384521484375;	240,0;	0,0;	0,0
711,4270629882812;	257,75;	0,0;	0,0
711,469482421875;	253,25;	0,0;	0,0
711,511962890625;	273,0;	0,0;	0,0
711,5543823242188;	271,5;	0,0;	0,0
711,5968017578125;	257,5;	0,0;	0,0
711,6392211914062;	248,25;	0,0;	0,0
711,681640625;	263,0;	0,0;	0,0
711,7239990234375;	254,0;	0,0;	0,0
711,766357421875;	245,75;	0,0;	0,0
711,8087158203125;	239,75;	0,0;	0,0
711,8510131835938;	252,5;	0,0;	0,0
711,893310546875;	242,5;	0,0;	0,0
711,9356689453125;	243,0;	0,0;	0,0
711,9779052734375;	255,75;	0,0;	0,0
712,0201416015625;	246,25;	0,0;	0,0
712,0623168945312;	251,25;	0,0;	0,0
712,1045532226562;	256,75;	0,0;	0,0
712,1467895507812;	250,0;	0,0;	0,0
712,1889038085938;	253,25;	0,0;	0,0
712,2311401367188;	255,5;	0,0;	0,0
712,2733154296875;	209,0;	0,0;	0,0
712,3153686523438;	227,25;	0,0;	0,0
712,3575439453125;	235,0;	0,0;	0,0
712,3995971679688;	271,5;	0,0;	0,0
712,441650390625;	252,75;	0,0;	0,0
712,4837646484375;	266,5;	0,0;	0,0
712,5258178710938;	253,0;	0,0;	0,0
712,5678100585938;	257,5;	0,0;	0,0
712,6098022460938;	253,25;	0,0;	0,0
712,6517944335938;	250,25;	0,0;	0,0
712,6937255859375;	247,25;	0,0;	0,0
712,7357177734375;	244,0;	0,0;	0,0
712,7776489257812;	246,25;	0,0;	0,0
712,819580078125;	239,5;	0,0;	0,0
712,8615112304688;	249,0;	0,0;	0,0
712,9033813476562;	266,5;	0,0;	0,0
712,9452514648438;	284,0;	0,0;	0,0
712,9871215820312;	264,5;	0,0;	0,0
713,0289306640625;	284,75;	0,0;	0,0
713,0707397460938;	283,5;	0,0;	0,0
713,1126098632812;	259,75;	0,0;	0,0
713,154296875;	231,5;	0,0;	0,0
713,1961059570312;	248,75;	0,0;	0,0
713,2378540039062;	246,75;	0,0;	0,0
713,279541015625;	246,25;	0,0;	0,0
713,3212890625;	252,25;	0,0;	0,0
713,363037109375;	236,25;	0,0;	0,0
713,4046630859375;	253,25;	0,0;	0,0
713,4463500976562;	222,25;	0,0;	0,0
713,4879150390625;	249,5;	0,0;	0,0
713,5296020507812;	235,0;	0,0;	0,0
713,5712280273438;	253,5;	0,0;	0,0
713,6128540039062;	248,0;	0,0;	0,0
713,6543579101562;	247,5;	0,0;	0,0
713,6959228515625;	253,75;	0,0;	0,0
713,7374267578125;	242,0;	0,0;	0,0
713,7789916992188;	247,75;	0,0;	0,0
713,8204345703125;	261,0;	0,0;	0,0
713,8619384765625;	253,25;	0,0;	0,0
713,9034423828125;	257,25;	0,0;	0,0
713,9448852539062;	238,5;	0,0;	0,0
713,9862670898438;	249,25;	0,0;	0,0
714,0277099609375;	253,5;	0,0;	0,0
714,0691528320312;	229,5;	0,0;	0,0
714,1104736328125;	228,5;	0,0;	0,0
714,1519165039062;	248,75;	0,0;	0,0
714,1931762695312;	247,0;	0,0;	0,0
714,2345581054688;	244,25;	0,0;	0,0
714,27587890625;	268,25;	0,0;	0,0
714,3171997070312;	247,75;	0,0;	0,0
714,3583984375;	234,75;	0,0;	0,0
714,3997192382812;	236,0;	0,0;	0,0
714,44091796875;	235,5;	0,0;	0,0
714,4821166992188;	240,0;	0,0;	0,0
714,5233764648438;	247,25;	0,0;	0,0
714,5645141601562;	267,25;	0,0;	0,0
714,6056518554688;	275,5;	0,0;	0,0
714,6469116210938;	281,75;	0,0;	0,0
714,68798828125;	297,5;	0,0;	0,0
714,7291259765625;	324,0;	0,0;	0,0
714,7702026367188;	356,5;	0,0;	0,0
714,811279296875;	279,25;	0,0;	0,0
714,8523559570312;	242,25;	0,0;	0,0
714,8933715820312;	239,75;	0,0;	0,0
714,9344482421875;	233,0;	0,0;	0,0
714,9754638671875;	217,75;	0,0;	0,0
715,0164794921875;	252,0;	0,0;	0,0
715,0574340820312;	246,5;	0,0;	0,0
715,0984497070312;	240,25;	0,0;	0,0
715,1393432617188;	227,0;	0,0;	0,0
715,1802978515625;	247,25;	0,0;	0,0
715,22119140625;	250,0;	0,0;	0,0
715,2620239257812;	261,25;	0,0;	0,0
715,3029174804688;	235,5;	0,0;	0,0
715,3438110351562;	258,5;	0,0;	0,0
715,3845825195312;	246,0;	0,0;	0,0
715,4254760742188;	260,5;	0,0;	0,0
715,4662475585938;	271,0;	0,0;	0,0
715,5070190429688;	286,25;	0,0;	0,0
715,5477905273438;	291,25;	0,0;	0,0
715,5885620117188;	294,0;	0,0;	0,0
715,6293334960938;	318,25;	0,0;	0,0
715,6700439453125;	323,5;	0,0;	0,0
715,7107543945312;	314,0;	0,0;	0,0
715,7513427734375;	309,5;	0,0;	0,0
715,7920532226562;	295,5;	0,0;	0,0
715,8327026367188;	271,5;	0,0;	0,0
715,873291015625;	238,25;	0,0;	0,0
715,9139404296875;	258,0;	0,0;	0,0
715,9545288085938;	220,25;	0,0;	0,0
715,9951171875;	237,25;	0,0;	0,0
716,0357055664062;	256,75;	0,0;	0,0
716,0762329101562;	248,0;	0,0;	0,0
716,1167602539062;	215,5;	0,0;	0,0
716,1572875976562;	238,5;	0,0;	0,0
716,1976928710938;	251,0;	0,0;	0,0
716,2382202148438;	243,25;	0,0;	0,0
716,2786865234375;	262,5;	0,0;	0,0
716,319091796875;	250,75;	0,0;	0,0
716,3595581054688;	274,25;	0,0;	0,0
716,3999633789062;	292,5;	0,0;	0,0
716,4402465820312;	271,0;	0,0;	0,0
716,480712890625;	255,75;	0,0;	0,0
716,52099609375;	279,75;	0,0;	0,0
716,5613403320312;	233,0;	0,0;	0,0
716,6016845703125;	251,75;	0,0;	0,0
716,6419677734375;	224,0;	0,0;	0,0
716,6822509765625;	224,75;	0,0;	0,0
716,7224731445312;	234,25;	0,0;	0,0
716,7626953125;	228,0;	0,0;	0,0
716,802978515625;	230,25;	0,0;	0,0
716,8432006835938;	260,0;	0,0;	0,0
716,88330078125;	253,75;	0,0;	0,0
716,9235229492188;	251,0;	0,0;	0,0
716,9636840820312;	213,5;	0,0;	0,0
717,0038452148438;	258,0;	0,0;	0,0
717,0439453125;	251,5;	0,0;	0,0
717,0840454101562;	226,75;	0,0;	0,0
717,1241455078125;	233,0;	0,0;	0,0
717,1641845703125;	270,75;	0,0;	0,0
717,2042236328125;	222,0;	0,0;	0,0
717,2442626953125;	223,75;	0,0;	0,0
717,2843017578125;	250,75;	0,0;	0,0
717,32421875;	231,0;	0,0;	0,0
717,3642578125;	246,25;	0,0;	0,0
717,4042358398438;	231,5;	0,0;	0,0
717,4441528320312;	224,75;	0,0;	0,0
717,484130859375;	235,75;	0,0;	0,0
717,5240478515625;	231,0;	0,0;	0,0
717,5638427734375;	241,0;	0,0;	0,0
717,603759765625;	204,25;	0,0;	0,0
717,6436157226562;	245,75;	0,0;	0,0
717,6834716796875;	255,25;	0,0;	0,0
717,7232666015625;	228,5;	0,0;	0,0
717,7631225585938;	229,0;	0,0;	0,0
717,8028564453125;	258,5;	0,0;	0,0
717,8426513671875;	233,25;	0,0;	0,0
717,8823852539062;	243,0;	0,0;	0,0
717,922119140625;	237,25;	0,0;	0,0
717,9618530273438;	239,5;	0,0;	0,0
718,0015869140625;	246,75;	0,0;	0,0
718,0411987304688;	230,5;	0,0;	0,0
718,0808715820312;	219,0;	0,0;	0,0
718,1204833984375;	238,0;	0,0;	0,0
718,16015625;	235,75;	0,0;	0,0
718,1998291015625;	260,75;	0,0;	0,0
718,2393188476562;	238,25;	0,0;	0,0
718,2789306640625;	235,5;	0,0;	0,0
718,3185424804688;	228,0;	0,0;	0,0
718,3579711914062;	242,25;	0,0;	0,0
718,3975830078125;	245,25;	0,0;	0,0
718,4370727539062;	240,0;	0,0;	0,0
718,4765625;	249,25;	0,0;	0,0
718,5159912109375;	253,0;	0,0;	0,0
718,555419921875;	268,5;	0,0;	0,0
718,5948486328125;	288,0;	0,0;	0,0
718,6343383789062;	297,0;	0,0;	0,0
718,6737060546875;	352,0;	0,0;	0,0
718,7130737304688;	325,0;	0,0;	0,0
718,75244140625;	268,75;	0,0;	0,0
718,791748046875;	246,0;	0,0;	0,0
718,8311157226562;	259,0;	0,0;	0,0
718,8704223632812;	243,0;	0,0;	0,0
718,90966796875;	255,0;	0,0;	0,0
718,948974609375;	224,25;	0,0;	0,0
718,98828125;	244,0;	0,0;	0,0
719,0274047851562;	249,5;	0,0;	0,0
719,0667114257812;	251,0;	0,0;	0,0
719,1058959960938;	210,5;	0,0;	0,0
719,1450805664062;	223,5;	0,0;	0,0
719,1842651367188;	248,0;	0,0;	0,0
719,223388671875;	230,75;	0,0;	0,0
719,2625122070312;	227,0;	0,0;	0,0
719,3016357421875;	230,75;	0,0;	0,0
719,3407592773438;	222,75;	0,0;	0,0
719,3797607421875;	243,5;	0,0;	0,0
719,4188842773438;	212,25;	0,0;	0,0
719,4578857421875;	230,5;	0,0;	0,0
719,4969482421875;	220,75;	0,0;	0,0
719,5359497070312;	245,25;	0,0;	0,0
719,5748901367188;	235,75;	0,0;	0,0
719,6139526367188;	228,0;	0,0;	0,0
719,65283203125;	215,75;	0,0;	0,0
719,6917724609375;	243,75;	0,0;	0,0
719,7307739257812;	232,0;	0,0;	0,0
719,7696533203125;	240,75;	0,0;	0,0
719,8085327148438;	231,5;	0,0;	0,0
719,8473510742188;	236,75;	0,0;	0,0
719,8862915039062;	223,25;	0,0;	0,0
719,925048828125;	224,5;	0,0;	0,0
719,9638671875;	227,25;	0,0;	0,0
720,002685546875;	224,75;	0,0;	0,0
720,0413818359375;	245,75;	0,0;	0,0
720,0802001953125;	243,5;	0,0;	0,0
720,1189575195312;	256,25;	0,0;	0,0
720,1576538085938;	256,0;	0,0;	0,0
720,1963500976562;	255,75;	0,0;	0,0
720,2350463867188;	240,25;	0,0;	0,0
720,2737426757812;	225,25;	0,0;	0,0
720,3124389648438;	224,5;	0,0;	0,0
720,3509521484375;	220,5;	0,0;	0,0
720,3896484375;	212,75;	0,0;	0,0
720,4282836914062;	240,5;	0,0;	0,0
720,466796875;	231,0;	0,0;	0,0
720,5054321289062;	253,25;	0,0;	0,0
720,5439453125;	237,75;	0,0;	0,0
720,5824584960938;	263,75;	0,0;	0,0
720,6210327148438;	275,75;	0,0;	0,0
720,6594848632812;	254,5;	0,0;	0,0
720,6979370117188;	309,0;	0,0;	0,0
720,7363891601562;	269,25;	0,0;	0,0
720,7747802734375;	245,75;	0,0;	0,0
720,813232421875;	226,25;	0,0;	0,0
720,8516845703125;	243,25;	0,0;	0,0
720,8900146484375;	214,5;	0,0;	0,0
720,928466796875;	219,0;	0,0;	0,0
720,9668579101562;	242,25;	0,0;	0,0
721,0050659179688;	226,0;	0,0;	0,0
721,04345703125;	214,5;	0,0;	0,0
721,0817260742188;	226,75;	0,0;	0,0
721,1199951171875;	223,5;	0,0;	0,0
721,1582641601562;	233,5;	0,0;	0,0
721,1964721679688;	231,0;	0,0;	0,0
721,2347412109375;	220,25;	0,0;	0,0
721,2730102539062;	235,75;	0,0;	0,0
721,3112182617188;	234,25;	0,0;	0,0
721,3493041992188;	223,25;	0,0;	0,0
721,3875122070312;	225,5;	0,0;	0,0
721,4255981445312;	248,0;	0,0;	0,0
721,4637451171875;	228,25;	0,0;	0,0
721,5018310546875;	203,5;	0,0;	0,0
721,5399780273438;	229,0;	0,0;	0,0
721,5780029296875;	226,25;	0,0;	0,0
721,6160888671875;	233,5;	0,0;	0,0
721,654052734375;	232,5;	0,0;	0,0
721,6920776367188;	243,75;	0,0;	0,0
721,7301635742188;	216,5;	0,0;	0,0
721,76806640625;	231,5;	0,0;	0,0
721,8060302734375;	236,75;	0,0;	0,0
721,8439331054688;	238,25;	0,0;	0,0
721,8818359375;	219,25;	0,0;	0,0
721,9197998046875;	219,25;	0,0;	0,0
721,9577026367188;	239,25;	0,0;	0,0
721,9955444335938;	234,75;	0,0;	0,0
722,0333862304688;	233,0;	0,0;	0,0
722,0712280273438;	247,0;	0,0;	0,0
722,1090698242188;	239,5;	0,0;	0,0
722,1468505859375;	216,5;	0,0;	0,0
722,1846923828125;	228,75;	0,0;	0,0
722,222412109375;	218,5;	0,0;	0,0
722,2601928710938;	236,5;	0,0;	0,0
722,2978515625;	227,75;	0,0;	0,0
722,3355712890625;	246,75;	0,0;	0,0
722,3733520507812;	213,75;	0,0;	0,0
722,4109497070312;	224,75;	0,0;	0,0
722,4486694335938;	236,75;	0,0;	0,0
722,4862670898438;	221,25;	0,0;	0,0
722,5238647460938;	219,25;	0,0;	0,0
722,5615234375;	229,75;	0,0;	0,0
722,59912109375;	219,75;	0,0;	0,0
722,6365966796875;	228,75;	0,0;	0,0
722,6741943359375;	226,0;	0,0;	0,0
722,711669921875;	226,0;	0,0;	0,0
722,7492065429688;	240,25;	0,0;	0,0
722,7867431640625;	237,75;	0,0;	0,0
722,82421875;	210,25;	0,0;	0,0
722,8616943359375;	223,5;	0,0;	0,0
722,899169921875;	224,5;	0,0;	0,0
722,9364624023438;	202,5;	0,0;	0,0
722,9739379882812;	215,25;	0,0;	0,0
723,0113525390625;	218,0;	0,0;	0,0
723,0487060546875;	207,75;	0,0;	0,0
723,0860595703125;	230,75;	0,0;	0,0
723,1234130859375;	222,75;	0,0;	0,0
723,16064453125;	236,5;	0,0;	0,0
723,1980590820312;	211,5;	0,0;	0,0
723,2353515625;	203,75;	0,0;	0,0
723,2725219726562;	219,75;	0,0;	0,0
723,309814453125;	228,25;	0,0;	0,0
723,3469848632812;	205,25;	0,0;	0,0
723,3842163085938;	240,75;	0,0;	0,0
723,4214477539062;	223,25;	0,0;	0,0
723,4586181640625;	228,25;	0,0;	0,0
723,4957885742188;	242,0;	0,0;	0,0
723,532958984375;	205,0;	0,0;	0,0
723,5700073242188;	229,25;	0,0;	0,0
723,6071166992188;	207,0;	0,0;	0,0
723,644287109375;	233,5;	0,0;	0,0
723,6813354492188;	238,0;	0,0;	0,0
723,7183837890625;	213,5;	0,0;	0,0
723,75537109375;	218,0;	0,0;	0,0
723,7923583984375;	232,0;	0,0;	0,0
723,8294067382812;	237,25;	0,0;	0,0
723,8663940429688;	226,5;	0,0;	0,0
723,9033203125;	237,25;	0,0;	0,0
723,9402465820312;	219,0;	0,0;	0,0
723,9771728515625;	224,5;	0,0;	0,0
724,0140991210938;	210,5;	0,0;	0,0
724,051025390625;	223,75;	0,0;	0,0
724,087890625;	217,5;	0,0;	0,0
724,1246337890625;	204,0;	0,0;	0,0
724,1615600585938;	223,25;	0,0;	0,0
724,1983032226562;	208,75;	0,0;	0,0
724,235107421875;	220,75;	0,0;	0,0
724,27197265625;	217,75;	0,0;	0,0
724,3087768554688;	230,0;	0,0;	0,0
724,345458984375;	233,5;	0,0;	0,0
724,3821411132812;	211,75;	0,0;	0,0
724,4188842773438;	231,75;	0,0;	0,0
724,45556640625;	190,25;	0,0;	0,0
724,4922485351562;	222,5;	0,0;	0,0
724,5288696289062;	216,25;	0,0;	0,0
724,5655517578125;	237,25;	0,0;	0,0
724,6021118164062;	212,75;	0,0;	0,0
724,6387329101562;	231,0;	0,0;	0,0
724,6753540039062;	223,25;	0,0;	0,0
724,7119140625;	219,5;	0,0;	0,0
724,7484741210938;	237,5;	0,0;	0,0
724,7849731445312;	216,75;	0,0;	0,0
724,8214721679688;	240,0;	0,0;	0,0
724,8579711914062;	243,0;	0,0;	0,0
724,8944702148438;	215,75;	0,0;	0,0
724,930908203125;	225,25;	0,0;	0,0
724,9673461914062;	228,25;	0,0;	0,0
725,0037841796875;	211,5;	0,0;	0,0
725,0401000976562;	219,0;	0,0;	0,0
725,0765991210938;	238,25;	0,0;	0,0
725,1129760742188;	232,0;	0,0;	0,0
725,1492919921875;	203,5;	0,0;	0,0
725,1856079101562;	228,75;	0,0;	0,0
725,221923828125;	219,0;	0,0;	0,0
725,2582397460938;	240,0;	0,0;	0,0
725,2945556640625;	223,5;	0,0;	0,0
725,3307495117188;	220,25;	0,0;	0,0
725,3670043945312;	207,75;	0,0;	0,0
725,4032592773438;	231,5;	0,0;	0,0
725,4393920898438;	243,5;	0,0;	0,0
725,4756469726562;	225,75;	0,0;	0,0
725,5117797851562;	227,5;	0,0;	0,0
725,5479736328125;	225,25;	0,0;	0,0
725,5840454101562;	209,25;	0,0;	0,0
725,6201782226562;	211,25;	0,0;	0,0
725,65625;	221,25;	0,0;	0,0
725,6923828125;	225,75;	0,0;	0,0
725,7284545898438;	225,5;	0,0;	0,0
725,7644653320312;	217,5;	0,0;	0,0
725,800537109375;	229,5;	0,0;	0,0
725,8365478515625;	217,5;	0,0;	0,0
725,8724975585938;	210,75;	0,0;	0,0
725,908447265625;	210,25;	0,0;	0,0
725,9444580078125;	219,25;	0,0;	0,0
725,9803466796875;	211,25;	0,0;	0,0
726,0162353515625;	226,75;	0,0;	0,0
726,0521240234375;	239,25;	0,0;	0,0
726,0880126953125;	226,5;	0,0;	0,0
726,1239624023438;	220,5;	0,0;	0,0
726,1597900390625;	226,0;	0,0;	0,0
726,195556640625;	226,75;	0,0;	0,0
726,2314453125;	217,0;	0,0;	0,0
726,2671508789062;	233,75;	0,0;	0,0
726,302978515625;	219,75;	0,0;	0,0
726,3387451171875;	212,0;	0,0;	0,0
726,3744506835938;	233,25;	0,0;	0,0
726,41015625;	238,0;	0,0;	0,0
726,4459228515625;	233,75;	0,0;	0,0
726,4815063476562;	216,25;	0,0;	0,0
726,5172119140625;	220,0;	0,0;	0,0
726,5529174804688;	222,0;	0,0;	0,0
726,5884399414062;	212,5;	0,0;	0,0
726,6240844726562;	207,75;	0,0;	0,0
726,6596069335938;	210,5;	0,0;	0,0
726,6952514648438;	211,0;	0,0;	0,0
726,7308349609375;	217,0;	0,0;	0,0
726,766357421875;	228,25;	0,0;	0,0
726,8018798828125;	210,25;	0,0;	0,0
726,83740234375;	230,75;	0,0;	0,0
726,8728637695312;	194,0;	0,0;	0,0
726,9083251953125;	212,5;	0,0;	0,0
726,9437866210938;	228,5;	0,0;	0,0
726,9791870117188;	227,5;	0,0;	0,0
727,0146484375;	211,25;	0,0;	0,0
727,0499877929688;	206,0;	0,0;	0,0
727,0853881835938;	215,75;	0,0;	0,0
727,1207885742188;	214,75;	0,0;	0,0
727,1560668945312;	204,25;	0,0;	0,0
727,19140625;	212,0;	0,0;	0,0
727,2266845703125;	223,0;	0,0;	0,0
727,261962890625;	193,75;	0,0;	0,0
727,2972412109375;	225,75;	0,0;	0,0
727,33251953125;	0,0;	0,0;	0,0
