-0.5	1.0
Integration time [ms]:	1.05
Averaging Nr. [scans]:1
Smoothing Nr. [pixels]:0
Data measured with spectrometer [name]:b'1703277U8'
Wave	;Sample	;Dark	;Reference	;Scope	
[nm]	;[counts]	;[counts]	;[counts]	
 
493,2108154296875;	422,5;	0,0;	0,0
493,2895202636719;	400,25;	0,0;	0,0
493,36822509765625;	298,75;	0,0;	0,0
493,4468994140625;	310,75;	0,0;	0,0
493,52557373046875;	329,25;	0,0;	0,0
493,6042175292969;	360,25;	0,0;	0,0
493,6828918457031;	439,0;	0,0;	0,0
493,7615051269531;	508,75;	0,0;	0,0
493,8401184082031;	369,75;	0,0;	0,0
493,9187316894531;	316,0;	0,0;	0,0
493,9973449707031;	302,0;	0,0;	0,0
494,075927734375;	293,5;	0,0;	0,0
494,1545104980469;	319,75;	0,0;	0,0
494,2330627441406;	284,25;	0,0;	0,0
494,3116149902344;	297,5;	0,0;	0,0
494,3901672363281;	314,0;	0,0;	0,0
494,4686584472656;	335,25;	0,0;	0,0
494,5472106933594;	325,25;	0,0;	0,0
494,6257019042969;	301,5;	0,0;	0,0
494,7041931152344;	300,75;	0,0;	0,0
494,78265380859375;	313,0;	0,0;	0,0
494,86114501953125;	343,5;	0,0;	0,0
494,9395751953125;	324,5;	0,0;	0,0
495,0180358886719;	332,25;	0,0;	0,0
495,096435546875;	336,75;	0,0;	0,0
495,1748962402344;	360,5;	0,0;	0,0
495,2532653808594;	345,75;	0,0;	0,0
495,3316650390625;	404,25;	0,0;	0,0
495,4100341796875;	618,0;	0,0;	0,0
495,4884338378906;	1541,25;	0,0;	0,0
495,5667724609375;	4424,25;	0,0;	0,0
495,6451110839844;	4591,75;	0,0;	0,0
495,72344970703125;	980,0;	0,0;	0,0
495,8017883300781;	441,5;	0,0;	0,0
495,8800964355469;	371,0;	0,0;	0,0
495,9583435058594;	341,5;	0,0;	0,0
496,0366516113281;	363,75;	0,0;	0,0
496,11492919921875;	344,0;	0,0;	0,0
496,19317626953125;	318,75;	0,0;	0,0
496,27142333984375;	346,0;	0,0;	0,0
496,34967041015625;	373,25;	0,0;	0,0
496,4278869628906;	504,25;	0,0;	0,0
496,506103515625;	501,5;	0,0;	0,0
496,58428955078125;	377,75;	0,0;	0,0
496,6625061035156;	413,5;	0,0;	0,0
496,74066162109375;	321,5;	0,0;	0,0
496,8188171386719;	366,5;	0,0;	0,0
496,89697265625;	413,75;	0,0;	0,0
496,9751281738281;	318,25;	0,0;	0,0
497,0532531738281;	368,25;	0,0;	0,0
497,1313171386719;	378,25;	0,0;	0,0
497,2094421386719;	414,25;	0,0;	0,0
497,28753662109375;	341,75;	0,0;	0,0
497,3656005859375;	336,0;	0,0;	0,0
497,44366455078125;	334,5;	0,0;	0,0
497,521728515625;	338,0;	0,0;	0,0
497,59979248046875;	364,0;	0,0;	0,0
497,67779541015625;	423,25;	0,0;	0,0
497,7558288574219;	419,5;	0,0;	0,0
497,83380126953125;	379,75;	0,0;	0,0
497,91180419921875;	416,5;	0,0;	0,0
497,9897766113281;	512,0;	0,0;	0,0
498,0677490234375;	739,5;	0,0;	0,0
498,1457214355469;	911,25;	0,0;	0,0
498,2236633300781;	825,25;	0,0;	0,0
498,30157470703125;	688,25;	0,0;	0,0
498,3794860839844;	713,0;	0,0;	0,0
498,4573974609375;	549,75;	0,0;	0,0
498,5353088378906;	358,5;	0,0;	0,0
498,6131896972656;	387,5;	0,0;	0,0
498,6910705566406;	396,0;	0,0;	0,0
498,7688903808594;	412,0;	0,0;	0,0
498,84674072265625;	379,25;	0,0;	0,0
498,924560546875;	364,75;	0,0;	0,0
499,0024108886719;	429,25;	0,0;	0,0
499,0802307128906;	383,5;	0,0;	0,0
499,1579895019531;	365,0;	0,0;	0,0
499,23577880859375;	442,0;	0,0;	0,0
499,3135681152344;	425,75;	0,0;	0,0
499,3913269042969;	331,0;	0,0;	0,0
499,4690856933594;	312,25;	0,0;	0,0
499,5467834472656;	316,0;	0,0;	0,0
499,6245422363281;	309,0;	0,0;	0,0
499,7022399902344;	339,25;	0,0;	0,0
499,7799377441406;	361,5;	0,0;	0,0
499,8576354980469;	392,0;	0,0;	0,0
499,935302734375;	478,5;	0,0;	0,0
500,0129699707031;	764,0;	0,0;	0,0
500,090576171875;	726,5;	0,0;	0,0
500,1682434082031;	456,25;	0,0;	0,0
500,2458801269531;	458,0;	0,0;	0,0
500,323486328125;	578,25;	0,0;	0,0
500,40106201171875;	1186,0;	0,0;	0,0
500,47869873046875;	1343,25;	0,0;	0,0
500,5562744140625;	661,0;	0,0;	0,0
500,6337890625;	484,0;	0,0;	0,0
500,71136474609375;	396,5;	0,0;	0,0
500,7889099121094;	367,0;	0,0;	0,0
500,8664245605469;	343,0;	0,0;	0,0
500,9439392089844;	426,5;	0,0;	0,0
501,02142333984375;	666,5;	0,0;	0,0
501,09893798828125;	622,75;	0,0;	0,0
501,1764221191406;	384,5;	0,0;	0,0
501,25384521484375;	446,0;	0,0;	0,0
501,33135986328125;	632,75;	0,0;	0,0
501,40875244140625;	536,75;	0,0;	0,0
501,4862060546875;	372,25;	0,0;	0,0
501,5636291503906;	443,75;	0,0;	0,0
501,6410217285156;	562,0;	0,0;	0,0
501,7184143066406;	616,25;	0,0;	0,0
501,7957763671875;	400,25;	0,0;	0,0
501,8731384277344;	351,0;	0,0;	0,0
501,95050048828125;	391,75;	0,0;	0,0
502,0278625488281;	448,0;	0,0;	0,0
502,10516357421875;	494,5;	0,0;	0,0
502,1824951171875;	386,5;	0,0;	0,0
502,2597961425781;	356,5;	0,0;	0,0
502,33709716796875;	332,75;	0,0;	0,0
502,41436767578125;	360,0;	0,0;	0,0
502,4916687011719;	417,75;	0,0;	0,0
502,56890869140625;	496,75;	0,0;	0,0
502,6461486816406;	476,75;	0,0;	0,0
502,7233581542969;	408,25;	0,0;	0,0
502,8006286621094;	339,0;	0,0;	0,0
502,8778076171875;	338,75;	0,0;	0,0
502,9549865722656;	326,25;	0,0;	0,0
503,03216552734375;	330,75;	0,0;	0,0
503,1093444824219;	323,5;	0,0;	0,0
503,1865234375;	343,5;	0,0;	0,0
503,2636413574219;	311,75;	0,0;	0,0
503,34075927734375;	327,0;	0,0;	0,0
503,41790771484375;	315,75;	0,0;	0,0
503,4949951171875;	337,25;	0,0;	0,0
503,57208251953125;	319,75;	0,0;	0,0
503,6492004394531;	350,25;	0,0;	0,0
503,72625732421875;	355,5;	0,0;	0,0
503,8033142089844;	383,25;	0,0;	0,0
503,88037109375;	527,5;	0,0;	0,0
503,9573974609375;	707,25;	0,0;	0,0
504,034423828125;	661,5;	0,0;	0,0
504,1114196777344;	391,25;	0,0;	0,0
504,18841552734375;	327,5;	0,0;	0,0
504,2654113769531;	332,75;	0,0;	0,0
504,3423767089844;	334,0;	0,0;	0,0
504,4193115234375;	332,25;	0,0;	0,0
504,49627685546875;	314,0;	0,0;	0,0
504,5732421875;	342,75;	0,0;	0,0
504,650146484375;	407,75;	0,0;	0,0
504,7270202636719;	479,0;	0,0;	0,0
504,8039245605469;	695,5;	0,0;	0,0
504,880859375;	625,0;	0,0;	0,0
504,95770263671875;	455,75;	0,0;	0,0
505,0345458984375;	567,25;	0,0;	0,0
505,1114196777344;	363,5;	0,0;	0,0
505,1882629394531;	320,25;	0,0;	0,0
505,2650451660156;	323,0;	0,0;	0,0
505,34185791015625;	314,25;	0,0;	0,0
505,4186706542969;	328,0;	0,0;	0,0
505,4954528808594;	314,25;	0,0;	0,0
505,57220458984375;	312,0;	0,0;	0,0
505,6489562988281;	321,0;	0,0;	0,0
505,72576904296875;	319,0;	0,0;	0,0
505,802490234375;	333,0;	0,0;	0,0
505,87921142578125;	304,0;	0,0;	0,0
505,9559020996094;	318,5;	0,0;	0,0
506,0326232910156;	331,5;	0,0;	0,0
506,1092834472656;	317,0;	0,0;	0,0
506,1859436035156;	356,0;	0,0;	0,0
506,2626037597656;	474,0;	0,0;	0,0
506,3392639160156;	577,25;	0,0;	0,0
506,4159240722656;	443,75;	0,0;	0,0
506,4925231933594;	380,5;	0,0;	0,0
506,56915283203125;	391,0;	0,0;	0,0
506,645751953125;	461,0;	0,0;	0,0
506,72235107421875;	535,0;	0,0;	0,0
506,7989196777344;	457,25;	0,0;	0,0
506,8754577636719;	340,25;	0,0;	0,0
506,9520263671875;	336,5;	0,0;	0,0
507,028564453125;	386,0;	0,0;	0,0
507,1050720214844;	432,5;	0,0;	0,0
507,1816101074219;	459,5;	0,0;	0,0
507,2580871582031;	523,5;	0,0;	0,0
507,3345642089844;	538,75;	0,0;	0,0
507,4110412597656;	436,5;	0,0;	0,0
507,487548828125;	395,75;	0,0;	0,0
507,56396484375;	374,75;	0,0;	0,0
507,640380859375;	408,25;	0,0;	0,0
507,71685791015625;	546,25;	0,0;	0,0
507,7932434082031;	609,75;	0,0;	0,0
507,86962890625;	419,25;	0,0;	0,0
507,9460144042969;	313,25;	0,0;	0,0
508,02239990234375;	328,5;	0,0;	0,0
508,0987548828125;	372,0;	0,0;	0,0
508,17510986328125;	442,25;	0,0;	0,0
508,2514343261719;	387,5;	0,0;	0,0
508,3277893066406;	312,0;	0,0;	0,0
508,4040832519531;	294,25;	0,0;	0,0
508,4803771972656;	323,5;	0,0;	0,0
508,556640625;	290,5;	0,0;	0,0
508,6329650878906;	308,25;	0,0;	0,0
508,7091979980469;	309,5;	0,0;	0,0
508,78546142578125;	335,0;	0,0;	0,0
508,8616943359375;	342,75;	0,0;	0,0
508,93792724609375;	412,25;	0,0;	0,0
509,0141296386719;	353,5;	0,0;	0,0
509,09033203125;	322,75;	0,0;	0,0
509,1665344238281;	320,5;	0,0;	0,0
509,24267578125;	311,75;	0,0;	0,0
509,31884765625;	313,0;	0,0;	0,0
509,3949890136719;	326,25;	0,0;	0,0
509,4711608886719;	368,75;	0,0;	0,0
509,5472717285156;	416,75;	0,0;	0,0
509,62335205078125;	449,75;	0,0;	0,0
509,699462890625;	515,5;	0,0;	0,0
509,77557373046875;	471,5;	0,0;	0,0
509,85162353515625;	330,75;	0,0;	0,0
509,92767333984375;	339,75;	0,0;	0,0
510,00372314453125;	305,75;	0,0;	0,0
510,0798034667969;	314,75;	0,0;	0,0
510,15582275390625;	316,75;	0,0;	0,0
510,2318115234375;	318,25;	0,0;	0,0
510,3078308105469;	343,75;	0,0;	0,0
510,3837890625;	408,75;	0,0;	0,0
510,45977783203125;	426,25;	0,0;	0,0
510,5357360839844;	455,25;	0,0;	0,0
510,6116943359375;	576,0;	0,0;	0,0
510,6876220703125;	419,25;	0,0;	0,0
510,7635498046875;	374,75;	0,0;	0,0
510,8394470214844;	511,0;	0,0;	0,0
510,9153747558594;	521,5;	0,0;	0,0
510,9912414550781;	370,0;	0,0;	0,0
511,0671081542969;	309,0;	0,0;	0,0
511,1429443359375;	288,75;	0,0;	0,0
511,2188415527344;	308,0;	0,0;	0,0
511,2946472167969;	316,25;	0,0;	0,0
511,3704833984375;	320,5;	0,0;	0,0
511,4462890625;	290,5;	0,0;	0,0
511,5220947265625;	314,75;	0,0;	0,0
511,59783935546875;	319,5;	0,0;	0,0
511,6736145019531;	309,5;	0,0;	0,0
511,7494201660156;	307,75;	0,0;	0,0
511,82513427734375;	320,75;	0,0;	0,0
511,90087890625;	358,25;	0,0;	0,0
511,97662353515625;	351,75;	0,0;	0,0
512,0523071289062;	344,75;	0,0;	0,0
512,1280517578125;	365,75;	0,0;	0,0
512,2036743164062;	442,25;	0,0;	0,0
512,2793579101562;	498,0;	0,0;	0,0
512,3550415039062;	495,75;	0,0;	0,0
512,4306640625;	443,25;	0,0;	0,0
512,5062866210938;	414,75;	0,0;	0,0
512,5819702148438;	434,0;	0,0;	0,0
512,657470703125;	361,0;	0,0;	0,0
512,7330932617188;	347,75;	0,0;	0,0
512,8087158203125;	338,5;	0,0;	0,0
512,88427734375;	396,75;	0,0;	0,0
512,9598999023438;	388,5;	0,0;	0,0
513,035400390625;	437,5;	0,0;	0,0
513,1109008789062;	576,25;	0,0;	0,0
513,1864624023438;	772,25;	0,0;	0,0
513,2619018554688;	605,75;	0,0;	0,0
513,33740234375;	405,75;	0,0;	0,0
513,4129638671875;	373,75;	0,0;	0,0
513,4884033203125;	433,5;	0,0;	0,0
513,5638427734375;	513,0;	0,0;	0,0
513,6392822265625;	588,75;	0,0;	0,0
513,7147216796875;	896,75;	0,0;	0,0
513,7901000976562;	1481,25;	0,0;	0,0
513,8655395507812;	925,25;	0,0;	0,0
513,94091796875;	443,0;	0,0;	0,0
514,0162963867188;	456,75;	0,0;	0,0
514,0916748046875;	553,75;	0,0;	0,0
514,1669921875;	511,0;	0,0;	0,0
514,2423706054688;	347,0;	0,0;	0,0
514,3176879882812;	345,5;	0,0;	0,0
514,3930053710938;	307,75;	0,0;	0,0
514,4683837890625;	339,25;	0,0;	0,0
514,5435791015625;	354,0;	0,0;	0,0
514,618896484375;	422,5;	0,0;	0,0
514,694091796875;	485,75;	0,0;	0,0
514,7694091796875;	399,25;	0,0;	0,0
514,8446655273438;	376,0;	0,0;	0,0
514,9198608398438;	421,5;	0,0;	0,0
514,9950561523438;	426,25;	0,0;	0,0
515,0703125;	425,25;	0,0;	0,0
515,1454467773438;	411,5;	0,0;	0,0
515,220703125;	443,0;	0,0;	0,0
515,2957763671875;	369,75;	0,0;	0,0
515,3709716796875;	341,5;	0,0;	0,0
515,4461059570312;	345,5;	0,0;	0,0
515,521240234375;	371,25;	0,0;	0,0
515,5963745117188;	357,0;	0,0;	0,0
515,6714477539062;	363,25;	0,0;	0,0
515,7465209960938;	360,25;	0,0;	0,0
515,8215942382812;	339,75;	0,0;	0,0
515,896728515625;	375,0;	0,0;	0,0
515,9717407226562;	425,5;	0,0;	0,0
516,0467529296875;	616,0;	0,0;	0,0
516,121826171875;	620,5;	0,0;	0,0
516,1968383789062;	504,25;	0,0;	0,0
516,2717895507812;	443,5;	0,0;	0,0
516,3468017578125;	467,25;	0,0;	0,0
516,4217529296875;	608,5;	0,0;	0,0
516,4967651367188;	1119,25;	0,0;	0,0
516,5716552734375;	2695,5;	0,0;	0,0
516,6466674804688;	2226,75;	0,0;	0,0
516,7215576171875;	928,5;	0,0;	0,0
516,7964477539062;	721,75;	0,0;	0,0
516,871337890625;	482,5;	0,0;	0,0
516,9461669921875;	745,25;	0,0;	0,0
517,0211181640625;	1015,75;	0,0;	0,0
517,0960083007812;	625,25;	0,0;	0,0
517,1707763671875;	428,25;	0,0;	0,0
517,24560546875;	361,25;	0,0;	0,0
517,3204345703125;	332,0;	0,0;	0,0
517,3952026367188;	345,75;	0,0;	0,0
517,4700927734375;	326,0;	0,0;	0,0
517,5448608398438;	316,5;	0,0;	0,0
517,61962890625;	313,0;	0,0;	0,0
517,6943969726562;	357,0;	0,0;	0,0
517,7691040039062;	345,25;	0,0;	0,0
517,8438110351562;	364,0;	0,0;	0,0
517,9185791015625;	326,25;	0,0;	0,0
517,9932250976562;	348,0;	0,0;	0,0
518,0679321289062;	396,0;	0,0;	0,0
518,1426391601562;	423,0;	0,0;	0,0
518,21728515625;	540,0;	0,0;	0,0
518,2919311523438;	463,5;	0,0;	0,0
518,3665771484375;	371,0;	0,0;	0,0
518,4412231445312;	333,5;	0,0;	0,0
518,515869140625;	345,5;	0,0;	0,0
518,5903930664062;	350,0;	0,0;	0,0
518,6650390625;	403,75;	0,0;	0,0
518,7396240234375;	394,0;	0,0;	0,0
518,8141479492188;	394,75;	0,0;	0,0
518,8887329101562;	515,25;	0,0;	0,0
518,9631958007812;	933,5;	0,0;	0,0
519,0377807617188;	1388,25;	0,0;	0,0
519,1123046875;	1165,5;	0,0;	0,0
519,186767578125;	592,25;	0,0;	0,0
519,2612915039062;	502,0;	0,0;	0,0
519,3358154296875;	750,75;	0,0;	0,0
519,41015625;	697,0;	0,0;	0,0
519,4846801757812;	446,75;	0,0;	0,0
519,5591430664062;	373,5;	0,0;	0,0
519,633544921875;	392,5;	0,0;	0,0
519,7080078125;	437,75;	0,0;	0,0
519,7822875976562;	395,5;	0,0;	0,0
519,856689453125;	307,75;	0,0;	0,0
519,93115234375;	352,25;	0,0;	0,0
520,0054321289062;	399,75;	0,0;	0,0
520,0797729492188;	565,25;	0,0;	0,0
520,1541748046875;	436,75;	0,0;	0,0
520,2283935546875;	406,75;	0,0;	0,0
520,302734375;	480,5;	0,0;	0,0
520,3770751953125;	432,25;	0,0;	0,0
520,4512939453125;	472,0;	0,0;	0,0
520,525634765625;	442,25;	0,0;	0,0
520,5997924804688;	409,25;	0,0;	0,0
520,674072265625;	676,25;	0,0;	0,0
520,7483520507812;	602,0;	0,0;	0,0
520,822509765625;	384,0;	0,0;	0,0
520,8967895507812;	325,5;	0,0;	0,0
520,970947265625;	324,5;	0,0;	0,0
521,0451049804688;	332,5;	0,0;	0,0
521,1192626953125;	323,0;	0,0;	0,0
521,1934204101562;	348,5;	0,0;	0,0
521,267578125;	385,25;	0,0;	0,0
521,3417358398438;	507,75;	0,0;	0,0
521,415771484375;	645,75;	0,0;	0,0
521,4898681640625;	616,5;	0,0;	0,0
521,5640258789062;	553,25;	0,0;	0,0
521,6380615234375;	512,5;	0,0;	0,0
521,712158203125;	392,25;	0,0;	0,0
521,7862548828125;	343,25;	0,0;	0,0
521,8602294921875;	358,75;	0,0;	0,0
521,9342651367188;	336,0;	0,0;	0,0
522,0082397460938;	338,25;	0,0;	0,0
522,0822143554688;	329,0;	0,0;	0,0
522,1563110351562;	329,0;	0,0;	0,0
522,230224609375;	348,75;	0,0;	0,0
522,30419921875;	355,5;	0,0;	0,0
522,3781127929688;	482,5;	0,0;	0,0
522,4520874023438;	894,5;	0,0;	0,0
522,5260009765625;	2162,0;	0,0;	0,0
522,599853515625;	2251,25;	0,0;	0,0
522,6737670898438;	732,25;	0,0;	0,0
522,7476806640625;	440,25;	0,0;	0,0
522,821533203125;	492,75;	0,0;	0,0
522,8953857421875;	461,0;	0,0;	0,0
522,96923828125;	494,0;	0,0;	0,0
523,0430297851562;	884,5;	0,0;	0,0
523,1168823242188;	1985,0;	0,0;	0,0
523,190673828125;	1920,25;	0,0;	0,0
523,2644653320312;	632,5;	0,0;	0,0
523,3382568359375;	442,0;	0,0;	0,0
523,4119873046875;	368,75;	0,0;	0,0
523,4857788085938;	342,5;	0,0;	0,0
523,5595703125;	309,5;	0,0;	0,0
523,6332397460938;	323,75;	0,0;	0,0
523,7069702148438;	329,0;	0,0;	0,0
523,7807006835938;	320,75;	0,0;	0,0
523,8543701171875;	363,25;	0,0;	0,0
523,927978515625;	353,25;	0,0;	0,0
524,0016479492188;	348,25;	0,0;	0,0
524,0753173828125;	452,5;	0,0;	0,0
524,14892578125;	388,25;	0,0;	0,0
524,2225341796875;	372,0;	0,0;	0,0
524,2962036132812;	349,0;	0,0;	0,0
524,3698120117188;	313,5;	0,0;	0,0
524,443359375;	316,25;	0,0;	0,0
524,5169067382812;	338,5;	0,0;	0,0
524,5905151367188;	340,5;	0,0;	0,0
524,6640014648438;	335,5;	0,0;	0,0
524,7376098632812;	348,75;	0,0;	0,0
524,8110961914062;	354,5;	0,0;	0,0
524,8845825195312;	411,75;	0,0;	0,0
524,9580688476562;	429,75;	0,0;	0,0
525,0315551757812;	361,25;	0,0;	0,0
525,10498046875;	328,75;	0,0;	0,0
525,178466796875;	376,25;	0,0;	0,0
525,2518920898438;	345,75;	0,0;	0,0
525,3253173828125;	374,25;	0,0;	0,0
525,3987426757812;	356,5;	0,0;	0,0
525,47216796875;	338,25;	0,0;	0,0
525,5455322265625;	314,5;	0,0;	0,0
525,618896484375;	329,25;	0,0;	0,0
525,6922607421875;	312,0;	0,0;	0,0
525,765625;	317,75;	0,0;	0,0
525,8389892578125;	313,5;	0,0;	0,0
525,9122924804688;	365,25;	0,0;	0,0
525,9856567382812;	392,0;	0,0;	0,0
526,0588989257812;	432,5;	0,0;	0,0
526,1322021484375;	539,25;	0,0;	0,0
526,2054443359375;	553,75;	0,0;	0,0
526,2786865234375;	515,0;	0,0;	0,0
526,3519897460938;	548,5;	0,0;	0,0
526,4251098632812;	781,75;	0,0;	0,0
526,4984130859375;	1278,5;	0,0;	0,0
526,5715942382812;	1052,75;	0,0;	0,0
526,644775390625;	854,0;	0,0;	0,0
526,718017578125;	1987,75;	0,0;	0,0
526,7911376953125;	4855,25;	0,0;	0,0
526,8642578125;	4224,25;	0,0;	0,0
526,9374389648438;	1613,25;	0,0;	0,0
527,0105590820312;	486,0;	0,0;	0,0
527,0836791992188;	390,25;	0,0;	0,0
527,15673828125;	534,0;	0,0;	0,0
527,2298583984375;	464,0;	0,0;	0,0
527,3029174804688;	370,5;	0,0;	0,0
527,3760375976562;	381,5;	0,0;	0,0
527,4490356445312;	377,0;	0,0;	0,0
527,5220336914062;	346,5;	0,0;	0,0
527,5950927734375;	320,0;	0,0;	0,0
527,6680908203125;	313,75;	0,0;	0,0
527,7411499023438;	323,75;	0,0;	0,0
527,8140869140625;	373,0;	0,0;	0,0
527,8870849609375;	405,25;	0,0;	0,0
527,9600219726562;	475,0;	0,0;	0,0
528,032958984375;	663,75;	0,0;	0,0
528,1058959960938;	620,25;	0,0;	0,0
528,1788330078125;	753,5;	0,0;	0,0
528,251708984375;	788,0;	0,0;	0,0
528,3245849609375;	452,5;	0,0;	0,0
528,3974609375;	333,25;	0,0;	0,0
528,4703369140625;	344,5;	0,0;	0,0
528,543212890625;	324,25;	0,0;	0,0
528,6160278320312;	338,5;	0,0;	0,0
528,6888427734375;	343,75;	0,0;	0,0
528,7616577148438;	332,5;	0,0;	0,0
528,8344116210938;	325,75;	0,0;	0,0
528,9072265625;	316,0;	0,0;	0,0
528,97998046875;	324,25;	0,0;	0,0
529,0527954101562;	327,75;	0,0;	0,0
529,12548828125;	330,75;	0,0;	0,0
529,1982421875;	349,25;	0,0;	0,0
529,27099609375;	355,0;	0,0;	0,0
529,34375;	348,5;	0,0;	0,0
529,4163208007812;	327,75;	0,0;	0,0
529,4890747070312;	313,25;	0,0;	0,0
529,561767578125;	317,0;	0,0;	0,0
529,6343383789062;	333,0;	0,0;	0,0
529,70703125;	354,75;	0,0;	0,0
529,7796020507812;	329,25;	0,0;	0,0
529,8522338867188;	319,0;	0,0;	0,0
529,9249267578125;	334,0;	0,0;	0,0
529,9974365234375;	423,0;	0,0;	0,0
530,070068359375;	545,25;	0,0;	0,0
530,142578125;	479,0;	0,0;	0,0
530,2151489257812;	366,0;	0,0;	0,0
530,2876586914062;	336,5;	0,0;	0,0
530,3602294921875;	336,0;	0,0;	0,0
530,4326782226562;	333,5;	0,0;	0,0
530,5052490234375;	339,0;	0,0;	0,0
530,57763671875;	359,0;	0,0;	0,0
530,650146484375;	350,75;	0,0;	0,0
530,72265625;	349,0;	0,0;	0,0
530,7950439453125;	334,75;	0,0;	0,0
530,8674926757812;	347,0;	0,0;	0,0
530,93994140625;	311,5;	0,0;	0,0
531,0122680664062;	337,25;	0,0;	0,0
531,084716796875;	318,5;	0,0;	0,0
531,1571044921875;	333,25;	0,0;	0,0
531,2294311523438;	351,0;	0,0;	0,0
531,3018188476562;	319,25;	0,0;	0,0
531,3740844726562;	369,5;	0,0;	0,0
531,4464111328125;	371,75;	0,0;	0,0
531,518798828125;	395,0;	0,0;	0,0
531,591064453125;	378,5;	0,0;	0,0
531,6633911132812;	343,5;	0,0;	0,0
531,7356567382812;	321,75;	0,0;	0,0
531,807861328125;	338,75;	0,0;	0,0
531,880126953125;	353,0;	0,0;	0,0
531,9523315429688;	368,75;	0,0;	0,0
532,0245361328125;	378,25;	0,0;	0,0
532,0968017578125;	439,25;	0,0;	0,0
532,1689453125;	632,75;	0,0;	0,0
532,2411499023438;	1364,5;	0,0;	0,0
532,3133544921875;	1382,75;	0,0;	0,0
532,3854370117188;	647,0;	0,0;	0,0
532,4576416015625;	522,0;	0,0;	0,0
532,5297241210938;	926,25;	0,0;	0,0
532,6018676757812;	2519,25;	0,0;	0,0
532,6739501953125;	3774,25;	0,0;	0,0
532,7459716796875;	1825,0;	0,0;	0,0
532,818115234375;	486,5;	0,0;	0,0
532,8901977539062;	410,0;	0,0;	0,0
532,9622192382812;	348,0;	0,0;	0,0
533,0342407226562;	361,0;	0,0;	0,0
533,1062622070312;	382,5;	0,0;	0,0
533,1782836914062;	379,75;	0,0;	0,0
533,2503051757812;	361,5;	0,0;	0,0
533,3222045898438;	331,0;	0,0;	0,0
533,3942260742188;	350,5;	0,0;	0,0
533,4661865234375;	319,25;	0,0;	0,0
533,5380859375;	341,75;	0,0;	0,0
533,6100463867188;	386,25;	0,0;	0,0
533,6819458007812;	350,5;	0,0;	0,0
533,7538452148438;	427,75;	0,0;	0,0
533,82568359375;	727,0;	0,0;	0,0
533,8976440429688;	814,25;	0,0;	0,0
533,9694213867188;	797,0;	0,0;	0,0
534,0413208007812;	511,25;	0,0;	0,0
534,1130981445312;	343,25;	0,0;	0,0
534,1849975585938;	378,5;	0,0;	0,0
534,2567749023438;	343,5;	0,0;	0,0
534,3284912109375;	355,5;	0,0;	0,0
534,4003295898438;	334,0;	0,0;	0,0
534,4721069335938;	361,5;	0,0;	0,0
534,5438842773438;	375,75;	0,0;	0,0
534,6156005859375;	346,25;	0,0;	0,0
534,6873779296875;	353,25;	0,0;	0,0
534,759033203125;	387,0;	0,0;	0,0
534,830810546875;	398,25;	0,0;	0,0
534,9024047851562;	343,25;	0,0;	0,0
534,97412109375;	336,5;	0,0;	0,0
535,0457763671875;	353,0;	0,0;	0,0
535,1173706054688;	371,0;	0,0;	0,0
535,1890869140625;	378,0;	0,0;	0,0
535,2607421875;	333,0;	0,0;	0,0
535,332275390625;	336,75;	0,0;	0,0
535,4038696289062;	336,5;	0,0;	0,0
535,4754638671875;	359,0;	0,0;	0,0
535,5469970703125;	346,0;	0,0;	0,0
535,6185913085938;	357,5;	0,0;	0,0
535,6901245117188;	343,75;	0,0;	0,0
535,7616577148438;	348,25;	0,0;	0,0
535,8331909179688;	376,0;	0,0;	0,0
535,9046630859375;	370,0;	0,0;	0,0
535,9761962890625;	353,25;	0,0;	0,0
536,047607421875;	394,75;	0,0;	0,0
536,1190185546875;	425,5;	0,0;	0,0
536,1905517578125;	458,5;	0,0;	0,0
536,2619018554688;	556,0;	0,0;	0,0
536,3333740234375;	671,0;	0,0;	0,0
536,4048461914062;	676,75;	0,0;	0,0
536,4761352539062;	617,75;	0,0;	0,0
536,5475463867188;	776,25;	0,0;	0,0
536,6189575195312;	762,5;	0,0;	0,0
536,6902465820312;	662,5;	0,0;	0,0
536,7615966796875;	723,25;	0,0;	0,0
536,8329467773438;	1038,75;	0,0;	0,0
536,9042358398438;	1374,0;	0,0;	0,0
536,9755859375;	2609,25;	0,0;	0,0
537,046875;	2147,75;	0,0;	0,0
537,1181030273438;	734,0;	0,0;	0,0
537,1893920898438;	420,75;	0,0;	0,0
537,2606201171875;	415,0;	0,0;	0,0
537,3319091796875;	362,5;	0,0;	0,0
537,403076171875;	356,25;	0,0;	0,0
537,4743041992188;	379,0;	0,0;	0,0
537,5454711914062;	365,75;	0,0;	0,0
537,6165771484375;	361,0;	0,0;	0,0
537,6878051757812;	352,25;	0,0;	0,0
537,7589721679688;	400,0;	0,0;	0,0
537,830078125;	388,0;	0,0;	0,0
537,9012451171875;	401,25;	0,0;	0,0
537,9723510742188;	455,5;	0,0;	0,0
538,0433959960938;	549,0;	0,0;	0,0
538,1145629882812;	875,5;	0,0;	0,0
538,1856079101562;	1200,5;	0,0;	0,0
538,2566528320312;	880,5;	0,0;	0,0
538,3276977539062;	471,75;	0,0;	0,0
538,398681640625;	402,5;	0,0;	0,0
538,4697265625;	372,25;	0,0;	0,0
538,5408325195312;	376,75;	0,0;	0,0
538,6117553710938;	364,75;	0,0;	0,0
538,6827392578125;	379,75;	0,0;	0,0
538,753662109375;	412,25;	0,0;	0,0
538,8246459960938;	419,0;	0,0;	0,0
538,8956298828125;	404,25;	0,0;	0,0
538,9664916992188;	401,25;	0,0;	0,0
539,0374145507812;	448,75;	0,0;	0,0
539,1083374023438;	540,5;	0,0;	0,0
539,1791381835938;	665,5;	0,0;	0,0
539,2500610351562;	485,5;	0,0;	0,0
539,3209228515625;	415,0;	0,0;	0,0
539,3917236328125;	445,75;	0,0;	0,0
539,4625854492188;	719,75;	0,0;	0,0
539,5333862304688;	1450,25;	0,0;	0,0
539,6041870117188;	1435,75;	0,0;	0,0
539,6749877929688;	657,0;	0,0;	0,0
539,7457275390625;	446,75;	0,0;	0,0
539,8165283203125;	494,25;	0,0;	0,0
539,8872680664062;	512,5;	0,0;	0,0
539,9580078125;	504,75;	0,0;	0,0
540,0286865234375;	474,0;	0,0;	0,0
540,0994873046875;	568,75;	0,0;	0,0
540,170166015625;	740,5;	0,0;	0,0
540,2408447265625;	1225,25;	0,0;	0,0
540,3114624023438;	1287,25;	0,0;	0,0
540,3821411132812;	1631,0;	0,0;	0,0
540,4528198242188;	1770,25;	0,0;	0,0
540,5233764648438;	973,75;	0,0;	0,0
540,5940551757812;	414,0;	0,0;	0,0
540,6646728515625;	429,0;	0,0;	0,0
540,7351684570312;	442,0;	0,0;	0,0
540,8057861328125;	526,5;	0,0;	0,0
540,8763427734375;	683,25;	0,0;	0,0
540,9468383789062;	777,5;	0,0;	0,0
541,0174560546875;	592,5;	0,0;	0,0
541,087890625;	465,5;	0,0;	0,0
541,158447265625;	480,75;	0,0;	0,0
541,2289428710938;	576,0;	0,0;	0,0
541,2994384765625;	785,25;	0,0;	0,0
541,369873046875;	1097,25;	0,0;	0,0
541,4403686523438;	739,25;	0,0;	0,0
541,5107421875;	494,75;	0,0;	0,0
541,5811767578125;	404,5;	0,0;	0,0
541,6515502929688;	410,5;	0,0;	0,0
541,7219848632812;	381,5;	0,0;	0,0
541,7923583984375;	386,5;	0,0;	0,0
541,8627319335938;	397,25;	0,0;	0,0
541,93310546875;	410,25;	0,0;	0,0
542,0034790039062;	443,75;	0,0;	0,0
542,07373046875;	528,25;	0,0;	0,0
542,1441040039062;	739,75;	0,0;	0,0
542,21435546875;	1148,5;	0,0;	0,0
542,28466796875;	1083,0;	0,0;	0,0
542,3549194335938;	679,25;	0,0;	0,0
542,4251708984375;	458,5;	0,0;	0,0
542,4954833984375;	426,25;	0,0;	0,0
542,5657348632812;	406,75;	0,0;	0,0
542,6358642578125;	439,0;	0,0;	0,0
542,7061157226562;	664,5;	0,0;	0,0
542,7763671875;	1505,25;	0,0;	0,0
542,846435546875;	1937,0;	0,0;	0,0
542,9166870117188;	909,25;	0,0;	0,0
542,98681640625;	419,5;	0,0;	0,0
543,0569458007812;	398,25;	0,0;	0,0
543,1271362304688;	436,0;	0,0;	0,0
543,1971435546875;	557,0;	0,0;	0,0
543,267333984375;	1054,5;	0,0;	0,0
543,33740234375;	1101,75;	0,0;	0,0
543,407470703125;	587,0;	0,0;	0,0
543,4774780273438;	372,0;	0,0;	0,0
543,547607421875;	393,5;	0,0;	0,0
543,6175537109375;	370,75;	0,0;	0,0
543,6876220703125;	338,25;	0,0;	0,0
543,7576293945312;	359,5;	0,0;	0,0
543,8275756835938;	362,5;	0,0;	0,0
543,8975830078125;	331,25;	0,0;	0,0
543,9674682617188;	390,75;	0,0;	0,0
544,0374755859375;	373,5;	0,0;	0,0
544,107421875;	362,25;	0,0;	0,0
544,1773071289062;	418,25;	0,0;	0,0
544,2472534179688;	472,0;	0,0;	0,0
544,317138671875;	608,25;	0,0;	0,0
544,386962890625;	754,75;	0,0;	0,0
544,4568481445312;	984,0;	0,0;	0,0
544,5266723632812;	1784,0;	0,0;	0,0
544,5965576171875;	1363,5;	0,0;	0,0
544,6663818359375;	552,5;	0,0;	0,0
544,7361450195312;	391,25;	0,0;	0,0
544,8060302734375;	400,0;	0,0;	0,0
544,8757934570312;	391,0;	0,0;	0,0
544,945556640625;	387,75;	0,0;	0,0
545,0153198242188;	366,25;	0,0;	0,0
545,0850830078125;	392,5;	0,0;	0,0
545,15478515625;	411,0;	0,0;	0,0
545,2244873046875;	506,5;	0,0;	0,0
545,294189453125;	669,75;	0,0;	0,0
545,3639526367188;	1282,5;	0,0;	0,0
545,43359375;	1520,75;	0,0;	0,0
545,5032348632812;	837,5;	0,0;	0,0
545,5729370117188;	429,75;	0,0;	0,0
545,6424560546875;	391,75;	0,0;	0,0
545,712158203125;	379,25;	0,0;	0,0
545,78173828125;	341,25;	0,0;	0,0
545,851318359375;	356,75;	0,0;	0,0
545,9208984375;	401,25;	0,0;	0,0
545,9905395507812;	428,75;	0,0;	0,0
546,0599975585938;	487,5;	0,0;	0,0
546,1295776367188;	602,5;	0,0;	0,0
546,1990966796875;	579,25;	0,0;	0,0
546,2686157226562;	483,5;	0,0;	0,0
546,338134765625;	399,25;	0,0;	0,0
546,4075317382812;	374,25;	0,0;	0,0
546,4771118164062;	416,25;	0,0;	0,0
546,5465698242188;	432,5;	0,0;	0,0
546,615966796875;	360,25;	0,0;	0,0
546,6853637695312;	366,0;	0,0;	0,0
546,7548217773438;	367,0;	0,0;	0,0
546,82421875;	383,5;	0,0;	0,0
546,8936157226562;	383,25;	0,0;	0,0
546,9630126953125;	347,5;	0,0;	0,0
547,0323486328125;	369,5;	0,0;	0,0
547,1016845703125;	354,5;	0,0;	0,0
547,1710205078125;	413,75;	0,0;	0,0
547,2403564453125;	428,0;	0,0;	0,0
547,3096923828125;	428,25;	0,0;	0,0
547,37890625;	454,75;	0,0;	0,0
547,4482421875;	534,75;	0,0;	0,0
547,5175170898438;	608,25;	0,0;	0,0
547,586669921875;	502,5;	0,0;	0,0
547,6559448242188;	389,0;	0,0;	0,0
547,7252197265625;	375,25;	0,0;	0,0
547,7943725585938;	366,75;	0,0;	0,0
547,8636474609375;	415,0;	0,0;	0,0
547,9327392578125;	429,75;	0,0;	0,0
548,001953125;	437,0;	0,0;	0,0
548,0711059570312;	387,0;	0,0;	0,0
548,1401977539062;	396,75;	0,0;	0,0
548,2093505859375;	424,5;	0,0;	0,0
548,2784423828125;	381,25;	0,0;	0,0
548,3475341796875;	371,0;	0,0;	0,0
548,4166259765625;	410,5;	0,0;	0,0
548,4857177734375;	396,25;	0,0;	0,0
548,5547485351562;	398,75;	0,0;	0,0
548,6238403320312;	457,0;	0,0;	0,0
548,6928100585938;	492,5;	0,0;	0,0
548,7619018554688;	414,25;	0,0;	0,0
548,8309326171875;	386,0;	0,0;	0,0
548,8998413085938;	399,75;	0,0;	0,0
548,9688720703125;	394,0;	0,0;	0,0
549,0377807617188;	391,75;	0,0;	0,0
549,1067504882812;	409,5;	0,0;	0,0
549,1756591796875;	423,0;	0,0;	0,0
549,2445678710938;	393,75;	0,0;	0,0
549,3135375976562;	381,5;	0,0;	0,0
549,3824462890625;	384,75;	0,0;	0,0
549,4512939453125;	408,25;	0,0;	0,0
549,5201416015625;	444,0;	0,0;	0,0
549,5890502929688;	551,75;	0,0;	0,0
549,6578369140625;	516,75;	0,0;	0,0
549,7266845703125;	405,25;	0,0;	0,0
549,7954711914062;	399,5;	0,0;	0,0
549,8642578125;	412,0;	0,0;	0,0
549,93310546875;	436,75;	0,0;	0,0
550,0017700195312;	532,75;	0,0;	0,0
550,070556640625;	455,0;	0,0;	0,0
550,1393432617188;	429,25;	0,0;	0,0
550,2080078125;	416,0;	0,0;	0,0
550,2767944335938;	407,25;	0,0;	0,0
550,345458984375;	436,75;	0,0;	0,0
550,4141235351562;	448,5;	0,0;	0,0
550,4828491210938;	577,5;	0,0;	0,0
550,5513916015625;	654,0;	0,0;	0,0
550,6201171875;	538,5;	0,0;	0,0
550,688720703125;	444,75;	0,0;	0,0
550,75732421875;	419,75;	0,0;	0,0
550,8259887695312;	439,75;	0,0;	0,0
550,89453125;	421,0;	0,0;	0,0
550,9630737304688;	445,25;	0,0;	0,0
551,0316772460938;	436,25;	0,0;	0,0
551,1002197265625;	418,75;	0,0;	0,0
551,1687622070312;	430,25;	0,0;	0,0
551,2373046875;	457,5;	0,0;	0,0
551,3057250976562;	390,5;	0,0;	0,0
551,374267578125;	447,0;	0,0;	0,0
551,4427490234375;	412,25;	0,0;	0,0
551,5111694335938;	442,5;	0,0;	0,0
551,5796508789062;	418,75;	0,0;	0,0
551,6480102539062;	432,25;	0,0;	0,0
551,7164916992188;	379,0;	0,0;	0,0
551,7849731445312;	403,5;	0,0;	0,0
551,8533325195312;	385,25;	0,0;	0,0
551,9216918945312;	421,25;	0,0;	0,0
551,9901123046875;	406,0;	0,0;	0,0
552,0584106445312;	387,0;	0,0;	0,0
552,1267700195312;	419,75;	0,0;	0,0
552,195068359375;	413,5;	0,0;	0,0
552,2633666992188;	386,0;	0,0;	0,0
552,3316650390625;	419,5;	0,0;	0,0
552,39990234375;	430,0;	0,0;	0,0
552,46826171875;	424,25;	0,0;	0,0
552,5364990234375;	396,25;	0,0;	0,0
552,6046752929688;	426,0;	0,0;	0,0
552,6729736328125;	434,75;	0,0;	0,0
552,7412109375;	403,0;	0,0;	0,0
552,809326171875;	423,5;	0,0;	0,0
552,8775634765625;	416,5;	0,0;	0,0
552,9457397460938;	415,0;	0,0;	0,0
553,0138549804688;	441,75;	0,0;	0,0
553,08203125;	427,0;	0,0;	0,0
553,150146484375;	420,75;	0,0;	0,0
553,2182006835938;	450,25;	0,0;	0,0
553,286376953125;	440,5;	0,0;	0,0
553,3544311523438;	550,75;	0,0;	0,0
553,4225463867188;	579,5;	0,0;	0,0
553,4906005859375;	507,25;	0,0;	0,0
553,55859375;	434,5;	0,0;	0,0
553,626708984375;	435,25;	0,0;	0,0
553,6947021484375;	415,25;	0,0;	0,0
553,7626953125;	436,75;	0,0;	0,0
553,8306884765625;	423,5;	0,0;	0,0
553,8986206054688;	453,25;	0,0;	0,0
553,9666137695312;	466,5;	0,0;	0,0
554,0346069335938;	428,0;	0,0;	0,0
554,1024780273438;	479,75;	0,0;	0,0
554,1704711914062;	478,25;	0,0;	0,0
554,2384033203125;	486,5;	0,0;	0,0
554,3062133789062;	489,25;	0,0;	0,0
554,3740844726562;	449,5;	0,0;	0,0
554,4419555664062;	408,75;	0,0;	0,0
554,509765625;	482,5;	0,0;	0,0
554,57763671875;	431,25;	0,0;	0,0
554,6454467773438;	432,0;	0,0;	0,0
554,7133178710938;	422,25;	0,0;	0,0
554,7810668945312;	456,25;	0,0;	0,0
554,8488159179688;	441,75;	0,0;	0,0
554,9166259765625;	436,0;	0,0;	0,0
554,9843139648438;	422,0;	0,0;	0,0
555,0521240234375;	427,5;	0,0;	0,0
555,119873046875;	427,0;	0,0;	0,0
555,1875;	415,75;	0,0;	0,0
555,2552490234375;	500,5;	0,0;	0,0
555,3229370117188;	529,0;	0,0;	0,0
555,390625;	502,75;	0,0;	0,0
555,458251953125;	438,5;	0,0;	0,0
555,52587890625;	424,25;	0,0;	0,0
555,593505859375;	468,25;	0,0;	0,0
555,6611328125;	423,0;	0,0;	0,0
555,7286987304688;	433,25;	0,0;	0,0
555,7963256835938;	415,25;	0,0;	0,0
555,8638916015625;	449,0;	0,0;	0,0
555,931396484375;	455,5;	0,0;	0,0
555,9989624023438;	443,0;	0,0;	0,0
556,0665283203125;	435,0;	0,0;	0,0
556,1339721679688;	494,0;	0,0;	0,0
556,2014770507812;	485,0;	0,0;	0,0
556,26904296875;	471,75;	0,0;	0,0
556,3364868164062;	486,0;	0,0;	0,0
556,4039306640625;	504,5;	0,0;	0,0
556,4713134765625;	488,5;	0,0;	0,0
556,538818359375;	475,5;	0,0;	0,0
556,6062622070312;	441,75;	0,0;	0,0
556,673583984375;	483,0;	0,0;	0,0
556,7410278320312;	609,75;	0,0;	0,0
556,8084716796875;	793,75;	0,0;	0,0
556,875732421875;	706,75;	0,0;	0,0
556,943115234375;	525,75;	0,0;	0,0
557,010498046875;	525,5;	0,0;	0,0
557,0776977539062;	800,25;	0,0;	0,0
557,1450805664062;	1129,25;	0,0;	0,0
557,2123413085938;	874,75;	0,0;	0,0
557,2796020507812;	523,75;	0,0;	0,0
557,346923828125;	463,75;	0,0;	0,0
557,4141235351562;	558,0;	0,0;	0,0
557,4813232421875;	572,5;	0,0;	0,0
557,5485229492188;	512,75;	0,0;	0,0
557,6157836914062;	424,25;	0,0;	0,0
557,6829833984375;	402,75;	0,0;	0,0
557,7501831054688;	404,0;	0,0;	0,0
557,8173217773438;	385,75;	0,0;	0,0
557,8844604492188;	413,25;	0,0;	0,0
557,9515991210938;	427,5;	0,0;	0,0
558,0187377929688;	414,25;	0,0;	0,0
558,0858764648438;	445,5;	0,0;	0,0
558,1528930664062;	425,25;	0,0;	0,0
558,219970703125;	409,5;	0,0;	0,0
558,2869873046875;	436,75;	0,0;	0,0
558,3540649414062;	517,0;	0,0;	0,0
558,421142578125;	687,75;	0,0;	0,0
558,4881591796875;	1218,5;	0,0;	0,0
558,55517578125;	1496,25;	0,0;	0,0
558,6221923828125;	1019,25;	0,0;	0,0
558,6891479492188;	856,5;	0,0;	0,0
558,7561645507812;	799,25;	0,0;	0,0
558,8230590820312;	617,25;	0,0;	0,0
558,8900146484375;	476,0;	0,0;	0,0
558,9569702148438;	458,5;	0,0;	0,0
559,0238037109375;	446,75;	0,0;	0,0
559,0906982421875;	428,5;	0,0;	0,0
559,1576538085938;	434,5;	0,0;	0,0
559,2244262695312;	505,0;	0,0;	0,0
559,2913208007812;	646,25;	0,0;	0,0
559,358154296875;	602,25;	0,0;	0,0
559,4249877929688;	468,25;	0,0;	0,0
559,4918212890625;	436,25;	0,0;	0,0
559,5586547851562;	428,0;	0,0;	0,0
559,6253662109375;	540,0;	0,0;	0,0
559,692138671875;	607,0;	0,0;	0,0
559,7589111328125;	542,5;	0,0;	0,0
559,8256225585938;	486,5;	0,0;	0,0
559,8923950195312;	438,5;	0,0;	0,0
559,9590454101562;	500,5;	0,0;	0,0
560,0257568359375;	517,5;	0,0;	0,0
560,0924682617188;	590,25;	0,0;	0,0
560,1591186523438;	642,75;	0,0;	0,0
560,225830078125;	546,75;	0,0;	0,0
560,29248046875;	436,75;	0,0;	0,0
560,3590698242188;	416,25;	0,0;	0,0
560,4256591796875;	399,0;	0,0;	0,0
560,4921875;	390,25;	0,0;	0,0
560,5587768554688;	410,25;	0,0;	0,0
560,6254272460938;	401,75;	0,0;	0,0
560,6919555664062;	398,0;	0,0;	0,0
560,7584838867188;	402,0;	0,0;	0,0
560,824951171875;	398,0;	0,0;	0,0
560,8914794921875;	404,5;	0,0;	0,0
560,9580688476562;	391,75;	0,0;	0,0
561,0245361328125;	409,5;	0,0;	0,0
561,0909423828125;	399,5;	0,0;	0,0
561,157470703125;	443,5;	0,0;	0,0
561,2238159179688;	497,25;	0,0;	0,0
561,2903442382812;	646,25;	0,0;	0,0
561,3567504882812;	1236,25;	0,0;	0,0
561,4231567382812;	2017,75;	0,0;	0,0
561,489501953125;	1450,75;	0,0;	0,0
561,5558471679688;	678,0;	0,0;	0,0
561,6222534179688;	487,5;	0,0;	0,0
561,6885986328125;	458,5;	0,0;	0,0
561,7548828125;	460,25;	0,0;	0,0
561,8211669921875;	451,25;	0,0;	0,0
561,8875122070312;	440,0;	0,0;	0,0
561,9537963867188;	444,25;	0,0;	0,0
562,0200805664062;	428,75;	0,0;	0,0
562,0863647460938;	443,0;	0,0;	0,0
562,152587890625;	481,5;	0,0;	0,0
562,2188110351562;	484,5;	0,0;	0,0
562,2849731445312;	623,0;	0,0;	0,0
562,3511962890625;	659,25;	0,0;	0,0
562,4174194335938;	513,0;	0,0;	0,0
562,4835205078125;	462,25;	0,0;	0,0
562,5496826171875;	444,75;	0,0;	0,0
562,6159057617188;	433,5;	0,0;	0,0
562,6820068359375;	452,0;	0,0;	0,0
562,748046875;	418,0;	0,0;	0,0
562,814208984375;	436,0;	0,0;	0,0
562,8803100585938;	440,25;	0,0;	0,0
562,9463500976562;	402,25;	0,0;	0,0
563,0123901367188;	433,5;	0,0;	0,0
563,0784301757812;	417,5;	0,0;	0,0
563,14453125;	449,5;	0,0;	0,0
563,21044921875;	469,5;	0,0;	0,0
563,2764892578125;	473,0;	0,0;	0,0
563,3424682617188;	464,25;	0,0;	0,0
563,408447265625;	439,75;	0,0;	0,0
563,4744262695312;	446,25;	0,0;	0,0
563,5404052734375;	467,75;	0,0;	0,0
563,6062622070312;	513,0;	0,0;	0,0
563,6722412109375;	528,5;	0,0;	0,0
563,7380981445312;	521,75;	0,0;	0,0
563,8040161132812;	442,0;	0,0;	0,0
563,869873046875;	446,25;	0,0;	0,0
563,9356689453125;	463,5;	0,0;	0,0
564,0015258789062;	454,25;	0,0;	0,0
564,0673217773438;	459,25;	0,0;	0,0
564,1331787109375;	433,5;	0,0;	0,0
564,1990356445312;	463,0;	0,0;	0,0
564,2647705078125;	441,25;	0,0;	0,0
564,3305053710938;	405,5;	0,0;	0,0
564,3963012695312;	410,5;	0,0;	0,0
564,4620361328125;	435,25;	0,0;	0,0
564,5277709960938;	411,0;	0,0;	0,0
564,593505859375;	466,0;	0,0;	0,0
564,6591796875;	442,75;	0,0;	0,0
564,7249145507812;	458,25;	0,0;	0,0
564,7904663085938;	450,0;	0,0;	0,0
564,856201171875;	491,5;	0,0;	0,0
564,9218139648438;	460,5;	0,0;	0,0
564,9874877929688;	494,25;	0,0;	0,0
565,0530395507812;	452,0;	0,0;	0,0
565,1187133789062;	444,0;	0,0;	0,0
565,1842651367188;	456,75;	0,0;	0,0
565,2498168945312;	449,75;	0,0;	0,0
565,3153686523438;	489,0;	0,0;	0,0
565,3809204101562;	518,5;	0,0;	0,0
565,4464721679688;	465,5;	0,0;	0,0
565,511962890625;	465,75;	0,0;	0,0
565,5774536132812;	488,75;	0,0;	0,0
565,6429443359375;	513,5;	0,0;	0,0
565,7083740234375;	680,75;	0,0;	0,0
565,7738647460938;	677,75;	0,0;	0,0
565,83935546875;	535,25;	0,0;	0,0
565,9047241210938;	450,75;	0,0;	0,0
565,9701538085938;	456,25;	0,0;	0,0
566,0355834960938;	490,25;	0,0;	0,0
566,1009521484375;	593,25;	0,0;	0,0
566,1663208007812;	547,5;	0,0;	0,0
566,2316284179688;	479,75;	0,0;	0,0
566,2969970703125;	436,5;	0,0;	0,0
566,3623657226562;	450,0;	0,0;	0,0
566,4276123046875;	465,5;	0,0;	0,0
566,4929809570312;	469,25;	0,0;	0,0
566,5582275390625;	410,25;	0,0;	0,0
566,6234741210938;	478,25;	0,0;	0,0
566,688720703125;	437,0;	0,0;	0,0
566,7540283203125;	435,75;	0,0;	0,0
566,8192138671875;	465,5;	0,0;	0,0
566,8843994140625;	456,5;	0,0;	0,0
566,9495849609375;	454,0;	0,0;	0,0
567,0147705078125;	441,5;	0,0;	0,0
567,0799560546875;	446,75;	0,0;	0,0
567,1451416015625;	479,75;	0,0;	0,0
567,2102661132812;	465,75;	0,0;	0,0
567,2753295898438;	446,0;	0,0;	0,0
567,3405151367188;	416,75;	0,0;	0,0
567,4055786132812;	477,25;	0,0;	0,0
567,4706420898438;	448,75;	0,0;	0,0
567,5357055664062;	476,25;	0,0;	0,0
567,600830078125;	456,0;	0,0;	0,0
567,6658325195312;	479,25;	0,0;	0,0
567,7308959960938;	467,0;	0,0;	0,0
567,7958374023438;	471,25;	0,0;	0,0
567,86083984375;	515,5;	0,0;	0,0
567,9258422851562;	491,0;	0,0;	0,0
567,9907836914062;	529,5;	0,0;	0,0
568,0557250976562;	608,0;	0,0;	0,0
568,1207275390625;	775,5;	0,0;	0,0
568,185546875;	819,25;	0,0;	0,0
568,25048828125;	700,0;	0,0;	0,0
568,3153686523438;	588,25;	0,0;	0,0
568,3802490234375;	588,0;	0,0;	0,0
568,4451293945312;	551,75;	0,0;	0,0
568,5100708007812;	639,5;	0,0;	0,0
568,5748291015625;	722,0;	0,0;	0,0
568,6396484375;	893,5;	0,0;	0,0
568,7044677734375;	1142,0;	0,0;	0,0
568,769287109375;	1044,75;	0,0;	0,0
568,8340454101562;	763,25;	0,0;	0,0
568,8987426757812;	649,0;	0,0;	0,0
568,9635009765625;	593,25;	0,0;	0,0
569,0282592773438;	554,5;	0,0;	0,0
569,0929565429688;	533,25;	0,0;	0,0
569,15771484375;	502,5;	0,0;	0,0
569,222412109375;	499,5;	0,0;	0,0
569,2870483398438;	465,0;	0,0;	0,0
569,3517456054688;	499,75;	0,0;	0,0
569,4163818359375;	466,0;	0,0;	0,0
569,4810180664062;	424,25;	0,0;	0,0
569,5455932617188;	412,25;	0,0;	0,0
569,6102294921875;	424,0;	0,0;	0,0
569,6748657226562;	438,75;	0,0;	0,0
569,7393188476562;	437,0;	0,0;	0,0
569,803955078125;	430,5;	0,0;	0,0
569,8685302734375;	462,0;	0,0;	0,0
569,9330444335938;	479,0;	0,0;	0,0
569,9974975585938;	503,75;	0,0;	0,0
570,0620727539062;	463,5;	0,0;	0,0
570,1265258789062;	453,25;	0,0;	0,0
570,1910400390625;	457,0;	0,0;	0,0
570,2554931640625;	441,0;	0,0;	0,0
570,3198852539062;	444,75;	0,0;	0,0
570,3843383789062;	496,25;	0,0;	0,0
570,44873046875;	496,0;	0,0;	0,0
570,51318359375;	493,5;	0,0;	0,0
570,5775756835938;	442,0;	0,0;	0,0
570,6419067382812;	478,75;	0,0;	0,0
570,706298828125;	481,5;	0,0;	0,0
570,7706298828125;	562,5;	0,0;	0,0
570,8349609375;	556,25;	0,0;	0,0
570,8992919921875;	477,5;	0,0;	0,0
570,963623046875;	435,25;	0,0;	0,0
571,02783203125;	456,75;	0,0;	0,0
571,0921020507812;	448,25;	0,0;	0,0
571,1563110351562;	418,5;	0,0;	0,0
571,2206420898438;	443,25;	0,0;	0,0
571,2848510742188;	429,0;	0,0;	0,0
571,3489990234375;	450,75;	0,0;	0,0
571,4132080078125;	468,5;	0,0;	0,0
571,4774169921875;	435,25;	0,0;	0,0
571,5415649414062;	429,5;	0,0;	0,0
571,6057739257812;	454,0;	0,0;	0,0
571,6698608398438;	454,25;	0,0;	0,0
571,7340087890625;	468,25;	0,0;	0,0
571,7981567382812;	420,5;	0,0;	0,0
571,8621826171875;	436,75;	0,0;	0,0
571,92626953125;	431,5;	0,0;	0,0
571,9904174804688;	446,5;	0,0;	0,0
572,0543823242188;	440,0;	0,0;	0,0
572,1184692382812;	428,75;	0,0;	0,0
572,1824951171875;	400,25;	0,0;	0,0
572,2464599609375;	428,25;	0,0;	0,0
572,3104858398438;	415,75;	0,0;	0,0
572,3744506835938;	410,0;	0,0;	0,0
572,4384155273438;	433,25;	0,0;	0,0
572,5023803710938;	411,0;	0,0;	0,0
572,5662841796875;	429,0;	0,0;	0,0
572,6301879882812;	461,25;	0,0;	0,0
572,6941528320312;	454,5;	0,0;	0,0
572,7579956054688;	435,5;	0,0;	0,0
572,8218383789062;	418,0;	0,0;	0,0
572,8856811523438;	434,5;	0,0;	0,0
572,9495849609375;	439,5;	0,0;	0,0
573,013427734375;	421,25;	0,0;	0,0
573,0772705078125;	444,75;	0,0;	0,0
573,1410522460938;	437,0;	0,0;	0,0
573,204833984375;	395,25;	0,0;	0,0
573,2686157226562;	432,25;	0,0;	0,0
573,3323364257812;	408,0;	0,0;	0,0
573,3961181640625;	403,75;	0,0;	0,0
573,4598388671875;	407,0;	0,0;	0,0
573,5235595703125;	398,5;	0,0;	0,0
573,5872192382812;	416,0;	0,0;	0,0
573,6509399414062;	423,5;	0,0;	0,0
573,714599609375;	399,75;	0,0;	0,0
573,7781982421875;	415,5;	0,0;	0,0
573,8418579101562;	393,75;	0,0;	0,0
573,905517578125;	441,0;	0,0;	0,0
573,9691162109375;	425,75;	0,0;	0,0
574,0327758789062;	403,75;	0,0;	0,0
574,0963745117188;	428,25;	0,0;	0,0
574,1598510742188;	465,25;	0,0;	0,0
574,2234497070312;	432,5;	0,0;	0,0
574,2869873046875;	442,75;	0,0;	0,0
574,3504638671875;	416,75;	0,0;	0,0
574,4140014648438;	411,5;	0,0;	0,0
574,4775390625;	413,5;	0,0;	0,0
574,5409545898438;	383,25;	0,0;	0,0
574,6044921875;	427,75;	0,0;	0,0
574,6679077148438;	411,25;	0,0;	0,0
574,7313232421875;	400,75;	0,0;	0,0
574,7947998046875;	398,25;	0,0;	0,0
574,858154296875;	425,5;	0,0;	0,0
574,9215698242188;	432,25;	0,0;	0,0
574,98486328125;	416,0;	0,0;	0,0
575,04833984375;	438,25;	0,0;	0,0
575,1116943359375;	456,5;	0,0;	0,0
575,1749877929688;	468,25;	0,0;	0,0
575,2383422851562;	453,5;	0,0;	0,0
575,3016357421875;	446,0;	0,0;	0,0
575,3648681640625;	400,5;	0,0;	0,0
575,42822265625;	394,75;	0,0;	0,0
575,491455078125;	392,5;	0,0;	0,0
575,5546264648438;	423,25;	0,0;	0,0
575,617919921875;	428,5;	0,0;	0,0
575,6810913085938;	430,25;	0,0;	0,0
575,7442626953125;	429,25;	0,0;	0,0
575,8074951171875;	392,75;	0,0;	0,0
575,8706665039062;	431,5;	0,0;	0,0
575,933837890625;	403,25;	0,0;	0,0
575,9969482421875;	430,5;	0,0;	0,0
576,06005859375;	478,0;	0,0;	0,0
576,1232299804688;	564,25;	0,0;	0,0
576,186279296875;	607,25;	0,0;	0,0
576,2493896484375;	501,0;	0,0;	0,0
576,3125;	380,25;	0,0;	0,0
576,37548828125;	436,5;	0,0;	0,0
576,4385375976562;	392,0;	0,0;	0,0
576,5015869140625;	424,0;	0,0;	0,0
576,5645751953125;	399,5;	0,0;	0,0
576,6275634765625;	414,0;	0,0;	0,0
576,6904907226562;	427,25;	0,0;	0,0
576,7534790039062;	431,0;	0,0;	0,0
576,8164672851562;	385,5;	0,0;	0,0
576,87939453125;	395,25;	0,0;	0,0
576,9423217773438;	400,0;	0,0;	0,0
577,0052490234375;	416,5;	0,0;	0,0
577,068115234375;	429,0;	0,0;	0,0
577,1309814453125;	418,75;	0,0;	0,0
577,1939086914062;	398,5;	0,0;	0,0
577,2567138671875;	399,0;	0,0;	0,0
577,3195190429688;	402,75;	0,0;	0,0
577,38232421875;	471,5;	0,0;	0,0
577,4451293945312;	432,25;	0,0;	0,0
577,5079956054688;	388,75;	0,0;	0,0
577,5706787109375;	420,0;	0,0;	0,0
577,6334838867188;	403,75;	0,0;	0,0
577,6962890625;	445,75;	0,0;	0,0
577,7589721679688;	407,0;	0,0;	0,0
577,8216552734375;	394,75;	0,0;	0,0
577,8843994140625;	429,5;	0,0;	0,0
577,947021484375;	444,75;	0,0;	0,0
578,009765625;	455,75;	0,0;	0,0
578,0723876953125;	474,5;	0,0;	0,0
578,135009765625;	470,25;	0,0;	0,0
578,1976928710938;	441,25;	0,0;	0,0
578,2601928710938;	426,75;	0,0;	0,0
578,3228149414062;	444,75;	0,0;	0,0
578,3854370117188;	429,75;	0,0;	0,0
578,447998046875;	461,5;	0,0;	0,0
578,5105590820312;	417,0;	0,0;	0,0
578,5731201171875;	405,75;	0,0;	0,0
578,6356201171875;	433,75;	0,0;	0,0
578,6981811523438;	411,75;	0,0;	0,0
578,7605590820312;	448,75;	0,0;	0,0
578,8231201171875;	486,5;	0,0;	0,0
578,8855590820312;	455,75;	0,0;	0,0
578,9479370117188;	478,25;	0,0;	0,0
579,0104370117188;	462,25;	0,0;	0,0
579,0728149414062;	443,75;	0,0;	0,0
579,1351928710938;	430,75;	0,0;	0,0
579,1976318359375;	426,75;	0,0;	0,0
579,260009765625;	439,5;	0,0;	0,0
579,3223266601562;	450,0;	0,0;	0,0
579,3847045898438;	432,75;	0,0;	0,0
579,447021484375;	453,75;	0,0;	0,0
579,5093383789062;	443,25;	0,0;	0,0
579,5716552734375;	414,25;	0,0;	0,0
579,6339111328125;	425,5;	0,0;	0,0
579,6962280273438;	449,25;	0,0;	0,0
579,7583618164062;	447,25;	0,0;	0,0
579,8206787109375;	444,5;	0,0;	0,0
579,8829345703125;	460,0;	0,0;	0,0
579,9451293945312;	445,75;	0,0;	0,0
580,0072631835938;	480,5;	0,0;	0,0
580,0695190429688;	482,0;	0,0;	0,0
580,131591796875;	445,75;	0,0;	0,0
580,1937866210938;	446,5;	0,0;	0,0
580,2559204101562;	458,75;	0,0;	0,0
580,3180541992188;	460,25;	0,0;	0,0
580,3801879882812;	445,0;	0,0;	0,0
580,4421997070312;	470,75;	0,0;	0,0
580,5043334960938;	451,25;	0,0;	0,0
580,56640625;	450,25;	0,0;	0,0
580,62841796875;	450,5;	0,0;	0,0
580,6904907226562;	466,0;	0,0;	0,0
580,7525024414062;	467,75;	0,0;	0,0
580,814453125;	453,5;	0,0;	0,0
580,87646484375;	446,5;	0,0;	0,0
580,9384765625;	443,25;	0,0;	0,0
581,0003662109375;	445,5;	0,0;	0,0
581,0623779296875;	420,75;	0,0;	0,0
581,124267578125;	465,75;	0,0;	0,0
581,1861572265625;	437,75;	0,0;	0,0
581,2481079101562;	463,5;	0,0;	0,0
581,3099365234375;	452,25;	0,0;	0,0
581,371826171875;	432,75;	0,0;	0,0
581,4336547851562;	458,75;	0,0;	0,0
581,4954833984375;	451,75;	0,0;	0,0
581,557373046875;	460,75;	0,0;	0,0
581,619140625;	462,0;	0,0;	0,0
581,680908203125;	461,25;	0,0;	0,0
581,7427368164062;	418,25;	0,0;	0,0
581,804443359375;	457,75;	0,0;	0,0
581,8662109375;	491,75;	0,0;	0,0
581,9279174804688;	411,5;	0,0;	0,0
581,9896850585938;	432,5;	0,0;	0,0
582,0513916015625;	465,5;	0,0;	0,0
582,113037109375;	435,25;	0,0;	0,0
582,1747436523438;	447,75;	0,0;	0,0
582,2363891601562;	465,25;	0,0;	0,0
582,2979736328125;	448,25;	0,0;	0,0
582,359619140625;	470,75;	0,0;	0,0
582,4212646484375;	480,5;	0,0;	0,0
582,4828491210938;	483,25;	0,0;	0,0
582,5444946289062;	475,5;	0,0;	0,0
582,6060180664062;	471,5;	0,0;	0,0
582,6675415039062;	487,25;	0,0;	0,0
582,7290649414062;	481,75;	0,0;	0,0
582,7905883789062;	458,5;	0,0;	0,0
582,8521118164062;	507,25;	0,0;	0,0
582,9136352539062;	478,75;	0,0;	0,0
582,9750366210938;	466,0;	0,0;	0,0
583,0365600585938;	515,25;	0,0;	0,0
583,0980224609375;	472,25;	0,0;	0,0
583,159423828125;	482,0;	0,0;	0,0
583,2208862304688;	478,25;	0,0;	0,0
583,2822875976562;	486,0;	0,0;	0,0
583,3436279296875;	460,5;	0,0;	0,0
583,405029296875;	479,5;	0,0;	0,0
583,46630859375;	450,0;	0,0;	0,0
583,5277099609375;	478,5;	0,0;	0,0
583,5890502929688;	474,0;	0,0;	0,0
583,6503295898438;	466,75;	0,0;	0,0
583,711669921875;	532,75;	0,0;	0,0
583,77294921875;	478,0;	0,0;	0,0
583,8341674804688;	418,75;	0,0;	0,0
583,8955078125;	478,5;	0,0;	0,0
583,9567260742188;	462,75;	0,0;	0,0
584,0179443359375;	442,75;	0,0;	0,0
584,0791015625;	493,5;	0,0;	0,0
584,1403198242188;	452,75;	0,0;	0,0
584,2014770507812;	472,75;	0,0;	0,0
584,2626342773438;	447,75;	0,0;	0,0
584,3237915039062;	462,25;	0,0;	0,0
584,3849487304688;	447,75;	0,0;	0,0
584,4459838867188;	469,25;	0,0;	0,0
584,5071411132812;	473,75;	0,0;	0,0
584,5682373046875;	446,75;	0,0;	0,0
584,6293334960938;	514,5;	0,0;	0,0
584,6903076171875;	477,25;	0,0;	0,0
584,7514038085938;	501,0;	0,0;	0,0
584,8123779296875;	466,75;	0,0;	0,0
584,8734130859375;	469,75;	0,0;	0,0
584,9344482421875;	494,25;	0,0;	0,0
584,9954223632812;	479,0;	0,0;	0,0
585,056396484375;	483,5;	0,0;	0,0
585,1173095703125;	496,75;	0,0;	0,0
585,1782836914062;	497,75;	0,0;	0,0
585,2391967773438;	488,5;	0,0;	0,0
585,3001098632812;	485,0;	0,0;	0,0
585,3609619140625;	515,75;	0,0;	0,0
585,4219360351562;	500,75;	0,0;	0,0
585,4827270507812;	516,75;	0,0;	0,0
585,5435791015625;	553,75;	0,0;	0,0
585,6044311523438;	640,5;	0,0;	0,0
585,6652221679688;	588,25;	0,0;	0,0
585,72607421875;	582,75;	0,0;	0,0
585,7868041992188;	537,25;	0,0;	0,0
585,8475952148438;	522,25;	0,0;	0,0
585,9083251953125;	542,75;	0,0;	0,0
585,9690551757812;	554,0;	0,0;	0,0
586,02978515625;	589,25;	0,0;	0,0
586,090576171875;	611,0;	0,0;	0,0
586,1511840820312;	565,5;	0,0;	0,0
586,2118530273438;	548,25;	0,0;	0,0
586,2725830078125;	524,5;	0,0;	0,0
586,3331909179688;	527,0;	0,0;	0,0
586,393798828125;	510,5;	0,0;	0,0
586,4544067382812;	546,25;	0,0;	0,0
586,5150146484375;	557,0;	0,0;	0,0
586,57568359375;	553,75;	0,0;	0,0
586,6361694335938;	528,0;	0,0;	0,0
586,6967163085938;	564,75;	0,0;	0,0
586,7573852539062;	536,5;	0,0;	0,0
586,8178100585938;	563,0;	0,0;	0,0
586,8783569335938;	545,75;	0,0;	0,0
586,9388427734375;	584,5;	0,0;	0,0
586,9993896484375;	607,25;	0,0;	0,0
587,0598754882812;	600,75;	0,0;	0,0
587,1202392578125;	602,0;	0,0;	0,0
587,1807250976562;	616,75;	0,0;	0,0
587,2410888671875;	623,75;	0,0;	0,0
587,301513671875;	631,5;	0,0;	0,0
587,3619384765625;	628,75;	0,0;	0,0
587,4223022460938;	645,0;	0,0;	0,0
587,482666015625;	675,25;	0,0;	0,0
587,5430297851562;	664,75;	0,0;	0,0
587,6033325195312;	690,25;	0,0;	0,0
587,6636352539062;	719,25;	0,0;	0,0
587,7239990234375;	730,0;	0,0;	0,0
587,7841796875;	735,0;	0,0;	0,0
587,8445434570312;	787,75;	0,0;	0,0
587,90478515625;	820,5;	0,0;	0,0
587,9649658203125;	844,5;	0,0;	0,0
588,0252075195312;	909,0;	0,0;	0,0
588,08544921875;	982,5;	0,0;	0,0
588,1456298828125;	1070,75;	0,0;	0,0
588,205810546875;	1179,75;	0,0;	0,0
588,2659301757812;	1288,75;	0,0;	0,0
588,3261108398438;	1500,5;	0,0;	0,0
588,3862915039062;	1802,75;	0,0;	0,0
588,4464111328125;	2202,25;	0,0;	0,0
588,5065307617188;	2870,25;	0,0;	0,0
588,5665893554688;	3987,75;	0,0;	0,0
588,6266479492188;	6198,25;	0,0;	0,0
588,6867065429688;	10434,75;	0,0;	0,0
588,7467041015625;	16383,75;	0,0;	0,0
588,8067626953125;	16383,75;	0,0;	0,0
588,8667602539062;	16383,75;	0,0;	0,0
588,9267578125;	16383,75;	0,0;	0,0
588,9867553710938;	16383,75;	0,0;	0,0
589,0467529296875;	7547,0;	0,0;	0,0
589,106689453125;	5345,5;	0,0;	0,0
589,1666259765625;	4764,25;	0,0;	0,0
589,2265625;	5138,25;	0,0;	0,0
589,2864379882812;	7597,25;	0,0;	0,0
589,3463745117188;	13848,0;	0,0;	0,0
589,4061889648438;	16383,75;	0,0;	0,0
589,466064453125;	16383,75;	0,0;	0,0
589,5259399414062;	16383,75;	0,0;	0,0
589,5857543945312;	9679,5;	0,0;	0,0
589,6455688476562;	4570,5;	0,0;	0,0
589,7053833007812;	2943,75;	0,0;	0,0
589,76513671875;	2130,25;	0,0;	0,0
589,824951171875;	1660,0;	0,0;	0,0
589,8847045898438;	1477,75;	0,0;	0,0
589,9443969726562;	1330,75;	0,0;	0,0
590,004150390625;	1159,25;	0,0;	0,0
590,0638427734375;	1066,0;	0,0;	0,0
590,12353515625;	996,5;	0,0;	0,0
590,1832275390625;	966,75;	0,0;	0,0
590,2428588867188;	905,25;	0,0;	0,0
590,302490234375;	892,0;	0,0;	0,0
590,3621215820312;	844,0;	0,0;	0,0
590,4217529296875;	830,75;	0,0;	0,0
590,4813842773438;	761,25;	0,0;	0,0
590,5409545898438;	794,5;	0,0;	0,0
590,6005249023438;	783,0;	0,0;	0,0
590,6600952148438;	747,5;	0,0;	0,0
590,7196044921875;	702,25;	0,0;	0,0
590,7791137695312;	710,0;	0,0;	0,0
590,8386840820312;	745,75;	0,0;	0,0
590,8981323242188;	732,5;	0,0;	0,0
590,9576416015625;	740,75;	0,0;	0,0
591,0170288085938;	687,0;	0,0;	0,0
591,0765380859375;	745,0;	0,0;	0,0
591,135986328125;	715,25;	0,0;	0,0
591,1953735351562;	735,75;	0,0;	0,0
591,2547607421875;	765,25;	0,0;	0,0
591,314208984375;	756,5;	0,0;	0,0
591,37353515625;	660,0;	0,0;	0,0
591,4329223632812;	663,5;	0,0;	0,0
591,4922485351562;	667,25;	0,0;	0,0
591,551513671875;	618,5;	0,0;	0,0
591,6109008789062;	608,25;	0,0;	0,0
591,670166015625;	642,0;	0,0;	0,0
591,7294921875;	664,25;	0,0;	0,0
591,7887573242188;	581,5;	0,0;	0,0
591,847900390625;	615,25;	0,0;	0,0
591,9071655273438;	577,0;	0,0;	0,0
591,9664306640625;	603,0;	0,0;	0,0
592,025634765625;	590,0;	0,0;	0,0
592,0847778320312;	619,75;	0,0;	0,0
592,1439819335938;	588,5;	0,0;	0,0
592,203125;	583,0;	0,0;	0,0
592,2622680664062;	573,0;	0,0;	0,0
592,3214111328125;	594,0;	0,0;	0,0
592,3804931640625;	560,25;	0,0;	0,0
592,4396362304688;	607,25;	0,0;	0,0
592,4987182617188;	595,0;	0,0;	0,0
592,5577392578125;	573,5;	0,0;	0,0
592,6167602539062;	608,0;	0,0;	0,0
592,6758422851562;	588,0;	0,0;	0,0
592,73486328125;	580,0;	0,0;	0,0
592,7938842773438;	621,0;	0,0;	0,0
592,8528442382812;	702,25;	0,0;	0,0
592,9118041992188;	617,0;	0,0;	0,0
592,9707641601562;	574,5;	0,0;	0,0
593,0297241210938;	545,0;	0,0;	0,0
593,0886840820312;	536,0;	0,0;	0,0
593,1475219726562;	571,5;	0,0;	0,0
593,2064819335938;	570,5;	0,0;	0,0
593,2652587890625;	590,25;	0,0;	0,0
593,32421875;	541,5;	0,0;	0,0
593,383056640625;	578,0;	0,0;	0,0
593,44189453125;	545,25;	0,0;	0,0
593,5006713867188;	529,75;	0,0;	0,0
593,5595703125;	584,0;	0,0;	0,0
593,6182861328125;	524,25;	0,0;	0,0
593,6770629882812;	519,5;	0,0;	0,0
593,73583984375;	560,5;	0,0;	0,0
593,7945556640625;	536,75;	0,0;	0,0
593,853271484375;	529,0;	0,0;	0,0
593,9119262695312;	564,5;	0,0;	0,0
593,970703125;	508,75;	0,0;	0,0
594,0293579101562;	534,25;	0,0;	0,0
594,0880126953125;	546,75;	0,0;	0,0
594,146728515625;	516,5;	0,0;	0,0
594,205322265625;	530,75;	0,0;	0,0
594,263916015625;	518,25;	0,0;	0,0
594,3225708007812;	519,5;	0,0;	0,0
594,3811645507812;	512,75;	0,0;	0,0
594,439697265625;	497,75;	0,0;	0,0
594,498291015625;	498,25;	0,0;	0,0
594,5567626953125;	501,5;	0,0;	0,0
594,6153564453125;	519,75;	0,0;	0,0
594,673828125;	494,25;	0,0;	0,0
594,7322998046875;	512,75;	0,0;	0,0
594,790771484375;	526,5;	0,0;	0,0
594,8492431640625;	502,75;	0,0;	0,0
594,90771484375;	508,75;	0,0;	0,0
594,9661254882812;	481,5;	0,0;	0,0
595,0245971679688;	477,25;	0,0;	0,0
595,0829467773438;	453,25;	0,0;	0,0
595,141357421875;	539,25;	0,0;	0,0
595,19970703125;	497,75;	0,0;	0,0
595,2581176757812;	471,75;	0,0;	0,0
595,3164672851562;	492,5;	0,0;	0,0
595,374755859375;	498,5;	0,0;	0,0
595,4330444335938;	508,5;	0,0;	0,0
595,4913330078125;	491,25;	0,0;	0,0
595,5496215820312;	544,25;	0,0;	0,0
595,60791015625;	486,75;	0,0;	0,0
595,6661987304688;	473,75;	0,0;	0,0
595,724365234375;	448,25;	0,0;	0,0
595,7825927734375;	501,0;	0,0;	0,0
595,8408203125;	510,5;	0,0;	0,0
595,8989868164062;	481,75;	0,0;	0,0
595,9572143554688;	494,75;	0,0;	0,0
596,0153198242188;	491,5;	0,0;	0,0
596,073486328125;	536,5;	0,0;	0,0
596,1315307617188;	491,25;	0,0;	0,0
596,1896362304688;	489,75;	0,0;	0,0
596,247802734375;	514,75;	0,0;	0,0
596,3058471679688;	481,25;	0,0;	0,0
596,3638916015625;	505,25;	0,0;	0,0
596,4219970703125;	503,0;	0,0;	0,0
596,47998046875;	441,25;	0,0;	0,0
596,5380249023438;	478,25;	0,0;	0,0
596,5960083007812;	472,0;	0,0;	0,0
596,6539916992188;	512,5;	0,0;	0,0
596,7119750976562;	499,5;	0,0;	0,0
596,7698364257812;	518,0;	0,0;	0,0
596,8278198242188;	501,0;	0,0;	0,0
596,8858032226562;	480,5;	0,0;	0,0
596,9436645507812;	456,25;	0,0;	0,0
597,0015869140625;	449,75;	0,0;	0,0
597,0595092773438;	512,0;	0,0;	0,0
597,1173095703125;	491,5;	0,0;	0,0
597,1751098632812;	479,25;	0,0;	0,0
597,2329711914062;	486,0;	0,0;	0,0
597,290771484375;	470,75;	0,0;	0,0
597,3486328125;	487,5;	0,0;	0,0
597,4063110351562;	508,25;	0,0;	0,0
597,4641723632812;	550,5;	0,0;	0,0
597,5219116210938;	501,5;	0,0;	0,0
597,57958984375;	528,75;	0,0;	0,0
597,6373291015625;	494,25;	0,0;	0,0
597,695068359375;	499,0;	0,0;	0,0
597,7527465820312;	486,75;	0,0;	0,0
597,8104248046875;	487,75;	0,0;	0,0
597,8681030273438;	480,75;	0,0;	0,0
597,9257202148438;	457,0;	0,0;	0,0
597,9833374023438;	471,0;	0,0;	0,0
598,0408935546875;	468,75;	0,0;	0,0
598,0985107421875;	464,25;	0,0;	0,0
598,1561279296875;	501,75;	0,0;	0,0
598,2136840820312;	568,5;	0,0;	0,0
598,271240234375;	599,0;	0,0;	0,0
598,3287353515625;	586,25;	0,0;	0,0
598,3862915039062;	563,0;	0,0;	0,0
598,44384765625;	531,25;	0,0;	0,0
598,5012817382812;	511,75;	0,0;	0,0
598,5587158203125;	528,5;	0,0;	0,0
598,6162109375;	483,0;	0,0;	0,0
598,673583984375;	505,5;	0,0;	0,0
598,7310791015625;	463,5;	0,0;	0,0
598,7885131835938;	461,75;	0,0;	0,0
598,8458251953125;	478,25;	0,0;	0,0
598,9032592773438;	446,0;	0,0;	0,0
598,9605712890625;	449,25;	0,0;	0,0
599,0179443359375;	471,75;	0,0;	0,0
599,0753173828125;	482,25;	0,0;	0,0
599,132568359375;	477,0;	0,0;	0,0
599,1898803710938;	467,0;	0,0;	0,0
599,2472534179688;	460,0;	0,0;	0,0
599,3043823242188;	438,75;	0,0;	0,0
599,3616943359375;	444,5;	0,0;	0,0
599,4189453125;	474,0;	0,0;	0,0
599,4761352539062;	475,5;	0,0;	0,0
599,5333251953125;	479,5;	0,0;	0,0
599,5905151367188;	472,25;	0,0;	0,0
599,647705078125;	483,25;	0,0;	0,0
599,7049560546875;	483,5;	0,0;	0,0
599,7620239257812;	442,25;	0,0;	0,0
599,8191528320312;	418,25;	0,0;	0,0
599,8762817382812;	437,5;	0,0;	0,0
599,933349609375;	432,5;	0,0;	0,0
599,9904174804688;	438,75;	0,0;	0,0
600,0475463867188;	453,0;	0,0;	0,0
600,1045532226562;	503,0;	0,0;	0,0
600,16162109375;	513,25;	0,0;	0,0
600,2186279296875;	499,25;	0,0;	0,0
600,2755737304688;	480,25;	0,0;	0,0
600,3326416015625;	485,5;	0,0;	0,0
600,3895874023438;	447,5;	0,0;	0,0
600,446533203125;	468,0;	0,0;	0,0
600,5034790039062;	504,5;	0,0;	0,0
600,5603637695312;	467,0;	0,0;	0,0
600,6172485351562;	484,25;	0,0;	0,0
600,6742553710938;	513,75;	0,0;	0,0
600,7310791015625;	548,5;	0,0;	0,0
600,7879028320312;	478,75;	0,0;	0,0
600,8447265625;	470,5;	0,0;	0,0
600,9015502929688;	445,0;	0,0;	0,0
600,9584350585938;	448,75;	0,0;	0,0
601,0151977539062;	442,75;	0,0;	0,0
601,0719604492188;	470,75;	0,0;	0,0
601,1287231445312;	441,75;	0,0;	0,0
601,185546875;	445,0;	0,0;	0,0
601,2422485351562;	481,25;	0,0;	0,0
601,2989501953125;	450,25;	0,0;	0,0
601,355712890625;	460,25;	0,0;	0,0
601,412353515625;	450,25;	0,0;	0,0
601,468994140625;	458,5;	0,0;	0,0
601,5256958007812;	475,5;	0,0;	0,0
601,5823364257812;	451,0;	0,0;	0,0
601,6389770507812;	499,0;	0,0;	0,0
601,695556640625;	490,5;	0,0;	0,0
601,7521362304688;	494,75;	0,0;	0,0
601,8087158203125;	530,25;	0,0;	0,0
601,8652954101562;	542,5;	0,0;	0,0
601,9218139648438;	530,5;	0,0;	0,0
601,9783935546875;	503,25;	0,0;	0,0
602,034912109375;	505,25;	0,0;	0,0
602,0913696289062;	474,5;	0,0;	0,0
602,1478271484375;	539,25;	0,0;	0,0
602,204345703125;	633,75;	0,0;	0,0
602,2608032226562;	638,5;	0,0;	0,0
602,3171997070312;	566,0;	0,0;	0,0
602,3736572265625;	496,75;	0,0;	0,0
602,4300537109375;	426,0;	0,0;	0,0
602,4864501953125;	432,25;	0,0;	0,0
602,5427856445312;	474,25;	0,0;	0,0
602,5991821289062;	475,5;	0,0;	0,0
602,655517578125;	457,75;	0,0;	0,0
602,7117919921875;	439,0;	0,0;	0,0
602,7681274414062;	423,0;	0,0;	0,0
602,824462890625;	439,5;	0,0;	0,0
602,8806762695312;	423,25;	0,0;	0,0
602,93701171875;	412,75;	0,0;	0,0
602,9932250976562;	433,0;	0,0;	0,0
603,0494384765625;	421,5;	0,0;	0,0
603,105712890625;	394,75;	0,0;	0,0
603,161865234375;	428,5;	0,0;	0,0
603,2180786132812;	456,75;	0,0;	0,0
603,2742309570312;	396,0;	0,0;	0,0
603,3303833007812;	413,75;	0,0;	0,0
603,3865356445312;	444,75;	0,0;	0,0
603,4426879882812;	417,25;	0,0;	0,0
603,498779296875;	437,75;	0,0;	0,0
603,5548706054688;	408,5;	0,0;	0,0
603,6109008789062;	447,75;	0,0;	0,0
603,6669311523438;	402,25;	0,0;	0,0
603,7230224609375;	425,5;	0,0;	0,0
603,7789916992188;	425,25;	0,0;	0,0
603,8350219726562;	426,25;	0,0;	0,0
603,8909912109375;	422,25;	0,0;	0,0
603,947021484375;	430,5;	0,0;	0,0
604,0030517578125;	453,25;	0,0;	0,0
604,0589599609375;	464,5;	0,0;	0,0
604,1148681640625;	442,5;	0,0;	0,0
604,1707763671875;	444,0;	0,0;	0,0
604,2266845703125;	402,25;	0,0;	0,0
604,2825317382812;	410,0;	0,0;	0,0
604,3385009765625;	426,75;	0,0;	0,0
604,394287109375;	425,25;	0,0;	0,0
604,4501342773438;	431,5;	0,0;	0,0
604,5059204101562;	423,0;	0,0;	0,0
604,5617065429688;	413,5;	0,0;	0,0
604,6175537109375;	407,75;	0,0;	0,0
604,67333984375;	445,5;	0,0;	0,0
604,7290649414062;	425,75;	0,0;	0,0
604,7847900390625;	412,5;	0,0;	0,0
604,8405151367188;	467,25;	0,0;	0,0
604,896240234375;	432,25;	0,0;	0,0
604,9519653320312;	436,75;	0,0;	0,0
605,007568359375;	434,25;	0,0;	0,0
605,0632934570312;	439,75;	0,0;	0,0
605,118896484375;	411,0;	0,0;	0,0
605,174560546875;	405,0;	0,0;	0,0
605,2301635742188;	427,75;	0,0;	0,0
605,2857666015625;	426,0;	0,0;	0,0
605,34130859375;	430,75;	0,0;	0,0
605,3969116210938;	438,5;	0,0;	0,0
605,4524536132812;	460,0;	0,0;	0,0
605,5079956054688;	468,25;	0,0;	0,0
605,5635375976562;	477,0;	0,0;	0,0
605,6190185546875;	423,75;	0,0;	0,0
605,674560546875;	440,25;	0,0;	0,0
605,7299194335938;	431,0;	0,0;	0,0
605,7854614257812;	389,0;	0,0;	0,0
605,8409423828125;	417,5;	0,0;	0,0
605,896240234375;	393,25;	0,0;	0,0
605,9517211914062;	427,5;	0,0;	0,0
606,0070190429688;	405,5;	0,0;	0,0
606,0625;	421,0;	0,0;	0,0
606,1178588867188;	426,25;	0,0;	0,0
606,1732177734375;	423,5;	0,0;	0,0
606,228515625;	439,75;	0,0;	0,0
606,2838745117188;	453,25;	0,0;	0,0
606,339111328125;	531,0;	0,0;	0,0
606,3944091796875;	592,5;	0,0;	0,0
606,44970703125;	522,75;	0,0;	0,0
606,5048828125;	459,75;	0,0;	0,0
606,5601806640625;	393,0;	0,0;	0,0
606,6153564453125;	418,5;	0,0;	0,0
606,6705322265625;	417,75;	0,0;	0,0
606,7257690429688;	399,25;	0,0;	0,0
606,781005859375;	396,25;	0,0;	0,0
606,8360595703125;	417,0;	0,0;	0,0
606,8912353515625;	430,75;	0,0;	0,0
606,9463500976562;	399,75;	0,0;	0,0
607,0014038085938;	407,0;	0,0;	0,0
607,0565795898438;	386,0;	0,0;	0,0
607,1116333007812;	410,5;	0,0;	0,0
607,1666870117188;	414,25;	0,0;	0,0
607,2216796875;	397,75;	0,0;	0,0
607,2767333984375;	419,5;	0,0;	0,0
607,331787109375;	389,0;	0,0;	0,0
607,38671875;	412,75;	0,0;	0,0
607,4417114257812;	387,0;	0,0;	0,0
607,4967041015625;	397,75;	0,0;	0,0
607,5515747070312;	415,25;	0,0;	0,0
607,6065673828125;	454,5;	0,0;	0,0
607,6615600585938;	432,25;	0,0;	0,0
607,7163696289062;	475,0;	0,0;	0,0
607,771240234375;	444,25;	0,0;	0,0
607,8261108398438;	425,5;	0,0;	0,0
607,8809814453125;	414,75;	0,0;	0,0
607,935791015625;	387,5;	0,0;	0,0
607,9906005859375;	439,0;	0,0;	0,0
608,0454711914062;	418,0;	0,0;	0,0
608,1001586914062;	399,25;	0,0;	0,0
608,1549682617188;	392,25;	0,0;	0,0
608,2097778320312;	405,75;	0,0;	0,0
608,2645263671875;	393,0;	0,0;	0,0
608,3191528320312;	389,5;	0,0;	0,0
608,3739013671875;	401,5;	0,0;	0,0
608,4285888671875;	427,0;	0,0;	0,0
608,4832153320312;	402,75;	0,0;	0,0
608,5379638671875;	376,5;	0,0;	0,0
608,5925903320312;	423,75;	0,0;	0,0
608,647216796875;	409,25;	0,0;	0,0
608,7017822265625;	407,0;	0,0;	0,0
608,7564086914062;	418,25;	0,0;	0,0
608,8109741210938;	424,25;	0,0;	0,0
608,8656005859375;	424,25;	0,0;	0,0
608,9201049804688;	412,5;	0,0;	0,0
608,974609375;	413,0;	0,0;	0,0
609,0291137695312;	400,0;	0,0;	0,0
609,0836181640625;	423,0;	0,0;	0,0
609,1381225585938;	443,0;	0,0;	0,0
609,1925659179688;	413,25;	0,0;	0,0
609,2470092773438;	430,0;	0,0;	0,0
609,3014526367188;	438,0;	0,0;	0,0
609,3558349609375;	439,5;	0,0;	0,0
609,4102783203125;	444,0;	0,0;	0,0
609,4646606445312;	443,5;	0,0;	0,0
609,51904296875;	425,0;	0,0;	0,0
609,5734252929688;	445,5;	0,0;	0,0
609,627685546875;	443,75;	0,0;	0,0
609,6820678710938;	450,5;	0,0;	0,0
609,7363891601562;	451,75;	0,0;	0,0
609,7906494140625;	435,0;	0,0;	0,0
609,844970703125;	431,25;	0,0;	0,0
609,899169921875;	460,25;	0,0;	0,0
609,953369140625;	469,25;	0,0;	0,0
610,0076293945312;	524,75;	0,0;	0,0
610,0618286132812;	653,5;	0,0;	0,0
610,1160888671875;	726,0;	0,0;	0,0
610,170166015625;	857,5;	0,0;	0,0
610,224365234375;	869,5;	0,0;	0,0
610,2785034179688;	688,25;	0,0;	0,0
610,3327026367188;	497,75;	0,0;	0,0
610,3867797851562;	433,5;	0,0;	0,0
610,4408569335938;	422,75;	0,0;	0,0
610,4949340820312;	435,75;	0,0;	0,0
610,549072265625;	423,0;	0,0;	0,0
610,6030883789062;	442,75;	0,0;	0,0
610,6571044921875;	424,25;	0,0;	0,0
610,7111206054688;	442,25;	0,0;	0,0
610,7650756835938;	464,25;	0,0;	0,0
610,819091796875;	415,5;	0,0;	0,0
610,8731079101562;	454,25;	0,0;	0,0
610,9270629882812;	447,5;	0,0;	0,0
610,98095703125;	429,0;	0,0;	0,0
611,034912109375;	420,0;	0,0;	0,0
611,0887451171875;	445,25;	0,0;	0,0
611,1427001953125;	410,5;	0,0;	0,0
611,1965942382812;	412,25;	0,0;	0,0
611,2503662109375;	402,0;	0,0;	0,0
611,30419921875;	424,5;	0,0;	0,0
611,3580322265625;	404,5;	0,0;	0,0
611,411865234375;	401,75;	0,0;	0,0
611,4656982421875;	416,5;	0,0;	0,0
611,5194702148438;	423,5;	0,0;	0,0
611,5731811523438;	427,75;	0,0;	0,0
611,626953125;	413,25;	0,0;	0,0
611,6806640625;	425,75;	0,0;	0,0
611,734375;	426,25;	0,0;	0,0
611,7880859375;	456,75;	0,0;	0,0
611,8417358398438;	439,25;	0,0;	0,0
611,8953857421875;	441,5;	0,0;	0,0
611,9490356445312;	482,25;	0,0;	0,0
612,002685546875;	572,0;	0,0;	0,0
612,0562744140625;	742,75;	0,0;	0,0
612,1099243164062;	731,0;	0,0;	0,0
612,1635131835938;	549,25;	0,0;	0,0
612,2171020507812;	450,5;	0,0;	0,0
612,2705688476562;	436,0;	0,0;	0,0
612,3241577148438;	413,25;	0,0;	0,0
612,3776245117188;	440,5;	0,0;	0,0
612,4310913085938;	425,5;	0,0;	0,0
612,484619140625;	417,75;	0,0;	0,0
612,5380859375;	420,0;	0,0;	0,0
612,591552734375;	421,0;	0,0;	0,0
612,64501953125;	442,75;	0,0;	0,0
612,6983642578125;	432,75;	0,0;	0,0
612,7518310546875;	455,75;	0,0;	0,0
612,80517578125;	399,0;	0,0;	0,0
612,8585205078125;	415,5;	0,0;	0,0
612,9119262695312;	432,25;	0,0;	0,0
612,9652709960938;	373,25;	0,0;	0,0
613,0185546875;	420,25;	0,0;	0,0
613,0718383789062;	410,0;	0,0;	0,0
613,1251220703125;	405,25;	0,0;	0,0
613,1784057617188;	403,5;	0,0;	0,0
613,2317504882812;	423,5;	0,0;	0,0
613,2849731445312;	413,5;	0,0;	0,0
613,338134765625;	441,5;	0,0;	0,0
613,391357421875;	498,5;	0,0;	0,0
613,4445190429688;	633,75;	0,0;	0,0
613,4977416992188;	756,75;	0,0;	0,0
613,5509033203125;	793,75;	0,0;	0,0
613,6040649414062;	791,25;	0,0;	0,0
613,6572265625;	627,25;	0,0;	0,0
613,7102661132812;	501,25;	0,0;	0,0
613,7633666992188;	419,25;	0,0;	0,0
613,8164672851562;	410,75;	0,0;	0,0
613,8695068359375;	437,0;	0,0;	0,0
613,922607421875;	450,0;	0,0;	0,0
613,9755859375;	477,0;	0,0;	0,0
614,028564453125;	501,5;	0,0;	0,0
614,0816040039062;	459,25;	0,0;	0,0
614,1346435546875;	443,5;	0,0;	0,0
614,1875610351562;	447,0;	0,0;	0,0
614,2405395507812;	414,5;	0,0;	0,0
614,2933959960938;	439,75;	0,0;	0,0
614,3463745117188;	412,0;	0,0;	0,0
614,3992919921875;	439,25;	0,0;	0,0
614,4521484375;	422,0;	0,0;	0,0
614,5050048828125;	439,75;	0,0;	0,0
614,5578002929688;	418,75;	0,0;	0,0
614,6106567382812;	418,5;	0,0;	0,0
614,6635131835938;	449,5;	0,0;	0,0
614,7163696289062;	438,5;	0,0;	0,0
614,7691040039062;	423,25;	0,0;	0,0
614,8218994140625;	419,25;	0,0;	0,0
614,8746337890625;	420,25;	0,0;	0,0
614,9273681640625;	443,75;	0,0;	0,0
614,9801025390625;	458,25;	0,0;	0,0
615,0327758789062;	416,5;	0,0;	0,0
615,0855102539062;	434,5;	0,0;	0,0
615,1381225585938;	454,0;	0,0;	0,0
615,1908569335938;	468,25;	0,0;	0,0
615,2434692382812;	449,5;	0,0;	0,0
615,2960815429688;	524,25;	0,0;	0,0
615,3486938476562;	502,25;	0,0;	0,0
615,4012451171875;	463,0;	0,0;	0,0
615,453857421875;	451,5;	0,0;	0,0
615,5064697265625;	434,75;	0,0;	0,0
615,5589599609375;	480,0;	0,0;	0,0
615,6114501953125;	468,0;	0,0;	0,0
615,6640014648438;	486,0;	0,0;	0,0
615,7164306640625;	485,25;	0,0;	0,0
615,7689819335938;	494,25;	0,0;	0,0
615,8214111328125;	509,5;	0,0;	0,0
615,8738403320312;	604,5;	0,0;	0,0
615,9263305664062;	692,0;	0,0;	0,0
615,9786987304688;	785,0;	0,0;	0,0
616,0310668945312;	922,0;	0,0;	0,0
616,08349609375;	967,25;	0,0;	0,0
616,1358642578125;	774,75;	0,0;	0,0
616,1881713867188;	630,0;	0,0;	0,0
616,2405395507812;	510,5;	0,0;	0,0
616,2928466796875;	482,5;	0,0;	0,0
616,3450927734375;	481,0;	0,0;	0,0
616,3974609375;	475,75;	0,0;	0,0
616,4496459960938;	487,5;	0,0;	0,0
616,501953125;	471,75;	0,0;	0,0
616,5540771484375;	475,25;	0,0;	0,0
616,6063842773438;	470,0;	0,0;	0,0
616,6585693359375;	454,25;	0,0;	0,0
616,7107543945312;	508,75;	0,0;	0,0
616,7628784179688;	535,25;	0,0;	0,0
616,8150634765625;	567,0;	0,0;	0,0
616,8671264648438;	520,5;	0,0;	0,0
616,9193115234375;	518,5;	0,0;	0,0
616,971435546875;	468,25;	0,0;	0,0
617,0234985351562;	496,0;	0,0;	0,0
617,0756225585938;	449,5;	0,0;	0,0
617,1275634765625;	460,25;	0,0;	0,0
617,1796875;	478,25;	0,0;	0,0
617,231689453125;	466,5;	0,0;	0,0
617,28369140625;	496,0;	0,0;	0,0
617,3356323242188;	468,75;	0,0;	0,0
617,3876953125;	443,0;	0,0;	0,0
617,4395751953125;	440,5;	0,0;	0,0
617,4915161132812;	444,75;	0,0;	0,0
617,54345703125;	474,5;	0,0;	0,0
617,5953369140625;	436,75;	0,0;	0,0
617,6472778320312;	445,0;	0,0;	0,0
617,6990966796875;	432,25;	0,0;	0,0
617,7509765625;	444,25;	0,0;	0,0
617,8027954101562;	443,25;	0,0;	0,0
617,8546142578125;	433,25;	0,0;	0,0
617,906494140625;	464,5;	0,0;	0,0
617,9581909179688;	468,5;	0,0;	0,0
618,010009765625;	465,5;	0,0;	0,0
618,061767578125;	451,0;	0,0;	0,0
618,113525390625;	456,5;	0,0;	0,0
618,1652221679688;	482,25;	0,0;	0,0
618,2169799804688;	470,75;	0,0;	0,0
618,2686157226562;	490,75;	0,0;	0,0
618,3203125;	464,5;	0,0;	0,0
618,3720092773438;	460,75;	0,0;	0,0
618,423583984375;	446,5;	0,0;	0,0
618,4752197265625;	467,25;	0,0;	0,0
618,5267944335938;	474,25;	0,0;	0,0
618,5784301757812;	472,25;	0,0;	0,0
618,6300048828125;	483,75;	0,0;	0,0
618,681640625;	436,25;	0,0;	0,0
618,7330932617188;	445,5;	0,0;	0,0
618,7846069335938;	458,0;	0,0;	0,0
618,8361206054688;	475,0;	0,0;	0,0
618,8876342773438;	529,25;	0,0;	0,0
618,9391479492188;	561,5;	0,0;	0,0
618,9905395507812;	698,75;	0,0;	0,0
619,0419921875;	666,0;	0,0;	0,0
619,0933837890625;	563,0;	0,0;	0,0
619,1448364257812;	480,0;	0,0;	0,0
619,1962890625;	453,25;	0,0;	0,0
619,2476196289062;	452,75;	0,0;	0,0
619,2990112304688;	421,0;	0,0;	0,0
619,3504028320312;	435,0;	0,0;	0,0
619,4016723632812;	437,5;	0,0;	0,0
619,4530029296875;	452,0;	0,0;	0,0
619,5043334960938;	439,75;	0,0;	0,0
619,5555419921875;	435,5;	0,0;	0,0
619,6068115234375;	422,0;	0,0;	0,0
619,6580810546875;	425,25;	0,0;	0,0
619,7092895507812;	453,0;	0,0;	0,0
619,7605590820312;	424,25;	0,0;	0,0
619,8117065429688;	429,75;	0,0;	0,0
619,8628540039062;	461,0;	0,0;	0,0
619,9140014648438;	465,0;	0,0;	0,0
619,9652099609375;	438,5;	0,0;	0,0
620,0162963867188;	422,0;	0,0;	0,0
620,0675048828125;	431,25;	0,0;	0,0
620,1185913085938;	451,0;	0,0;	0,0
620,169677734375;	472,5;	0,0;	0,0
620,2206420898438;	445,25;	0,0;	0,0
620,2717895507812;	443,0;	0,0;	0,0
620,3228149414062;	445,5;	0,0;	0,0
620,373779296875;	425,0;	0,0;	0,0
620,4248046875;	413,75;	0,0;	0,0
620,4757690429688;	410,5;	0,0;	0,0
620,5267333984375;	482,5;	0,0;	0,0
620,5777587890625;	450,75;	0,0;	0,0
620,628662109375;	476,0;	0,0;	0,0
620,6795654296875;	425,75;	0,0;	0,0
620,73046875;	443,75;	0,0;	0,0
620,7813110351562;	412,25;	0,0;	0,0
620,8322143554688;	464,25;	0,0;	0,0
620,883056640625;	444,5;	0,0;	0,0
620,933837890625;	437,25;	0,0;	0,0
620,9846801757812;	441,75;	0,0;	0,0
621,0354614257812;	456,5;	0,0;	0,0
621,0863037109375;	446,5;	0,0;	0,0
621,1370849609375;	454,75;	0,0;	0,0
621,1878662109375;	473,5;	0,0;	0,0
621,2385864257812;	477,25;	0,0;	0,0
621,2892456054688;	448,25;	0,0;	0,0
621,3399047851562;	444,75;	0,0;	0,0
621,3906860351562;	441,75;	0,0;	0,0
621,4413452148438;	437,75;	0,0;	0,0
621,491943359375;	445,5;	0,0;	0,0
621,5426025390625;	462,0;	0,0;	0,0
621,5931396484375;	428,75;	0,0;	0,0
621,643798828125;	450,25;	0,0;	0,0
621,6943969726562;	489,75;	0,0;	0,0
621,7449951171875;	492,25;	0,0;	0,0
621,7955322265625;	489,5;	0,0;	0,0
621,8460693359375;	480,75;	0,0;	0,0
621,8965454101562;	483,5;	0,0;	0,0
621,9470825195312;	417,25;	0,0;	0,0
621,9976196289062;	432,5;	0,0;	0,0
622,0480346679688;	466,75;	0,0;	0,0
622,0985107421875;	443,25;	0,0;	0,0
622,1488647460938;	444,75;	0,0;	0,0
622,1993408203125;	452,0;	0,0;	0,0
622,249755859375;	427,75;	0,0;	0,0
622,3001708984375;	436,75;	0,0;	0,0
622,3505249023438;	477,0;	0,0;	0,0
622,4008178710938;	461,25;	0,0;	0,0
622,451171875;	427,5;	0,0;	0,0
622,5015258789062;	450,25;	0,0;	0,0
622,5518798828125;	472,25;	0,0;	0,0
622,6021118164062;	436,5;	0,0;	0,0
622,6524047851562;	483,0;	0,0;	0,0
622,7025756835938;	490,75;	0,0;	0,0
622,7528686523438;	497,0;	0,0;	0,0
622,8031616210938;	532,0;	0,0;	0,0
622,853271484375;	618,25;	0,0;	0,0
622,9034423828125;	763,0;	0,0;	0,0
622,95361328125;	742,75;	0,0;	0,0
623,0037841796875;	620,0;	0,0;	0,0
623,053955078125;	532,0;	0,0;	0,0
623,1040649414062;	474,5;	0,0;	0,0
623,1541137695312;	496,5;	0,0;	0,0
623,2042236328125;	482,75;	0,0;	0,0
623,2542724609375;	471,5;	0,0;	0,0
623,3043823242188;	416,0;	0,0;	0,0
623,3544311523438;	442,25;	0,0;	0,0
623,4044189453125;	434,75;	0,0;	0,0
623,4544677734375;	406,75;	0,0;	0,0
623,50439453125;	429,25;	0,0;	0,0
623,5543823242188;	443,5;	0,0;	0,0
623,6043701171875;	439,5;	0,0;	0,0
623,6543579101562;	469,75;	0,0;	0,0
623,7042236328125;	462,75;	0,0;	0,0
623,754150390625;	436,5;	0,0;	0,0
623,803955078125;	462,25;	0,0;	0,0
623,8538818359375;	463,25;	0,0;	0,0
623,9037475585938;	446,75;	0,0;	0,0
623,9535522460938;	428,25;	0,0;	0,0
624,0033569335938;	442,75;	0,0;	0,0
624,0531616210938;	460,0;	0,0;	0,0
624,1029663085938;	427,5;	0,0;	0,0
624,1527709960938;	415,75;	0,0;	0,0
624,2025756835938;	432,5;	0,0;	0,0
624,2522583007812;	452,25;	0,0;	0,0
624,3019409179688;	452,0;	0,0;	0,0
624,3516235351562;	479,75;	0,0;	0,0
624,4013671875;	499,25;	0,0;	0,0
624,4510498046875;	520,25;	0,0;	0,0
624,5006713867188;	567,5;	0,0;	0,0
624,5503540039062;	528,0;	0,0;	0,0
624,599853515625;	491,75;	0,0;	0,0
624,6495361328125;	473,5;	0,0;	0,0
624,6991577148438;	436,5;	0,0;	0,0
624,7486572265625;	469,25;	0,0;	0,0
624,7982177734375;	429,5;	0,0;	0,0
624,8477172851562;	416,75;	0,0;	0,0
624,8972778320312;	458,25;	0,0;	0,0
624,94677734375;	444,25;	0,0;	0,0
624,9962768554688;	513,5;	0,0;	0,0
625,0457763671875;	496,75;	0,0;	0,0
625,09521484375;	599,25;	0,0;	0,0
625,1446533203125;	626,0;	0,0;	0,0
625,194091796875;	509,0;	0,0;	0,0
625,2434692382812;	473,75;	0,0;	0,0
625,2928466796875;	479,25;	0,0;	0,0
625,3422241210938;	472,0;	0,0;	0,0
625,3914794921875;	470,0;	0,0;	0,0
625,44091796875;	445,5;	0,0;	0,0
625,490234375;	465,75;	0,0;	0,0
625,53955078125;	420,5;	0,0;	0,0
625,5888061523438;	477,5;	0,0;	0,0
625,6380615234375;	417,5;	0,0;	0,0
625,687255859375;	429,25;	0,0;	0,0
625,736572265625;	450,75;	0,0;	0,0
625,7858276367188;	0,0;	0,0;	0,0
