0.0	1.0
Integration time [ms]:	1.05
Averaging Nr. [scans]:1
Smoothing Nr. [pixels]:0
Data measured with spectrometer [name]:b'1703279U8'
Wave	;Sample	;Dark	;Reference	;Scope	
[nm]	;[counts]	;[counts]	;[counts]	
 
725,3621826171875;	358,0;	0,0;	0,0
725,4813842773438;	351,0;	0,0;	0,0
725,6005249023438;	351,25;	0,0;	0,0
725,7197265625;	367,5;	0,0;	0,0
725,8388671875;	366,75;	0,0;	0,0
725,9579467773438;	353,5;	0,0;	0,0
726,0770874023438;	377,5;	0,0;	0,0
726,1961669921875;	374,5;	0,0;	0,0
726,315185546875;	374,75;	0,0;	0,0
726,4342651367188;	371,25;	0,0;	0,0
726,5532836914062;	371,25;	0,0;	0,0
726,6723022460938;	366,25;	0,0;	0,0
726,7913208007812;	398,75;	0,0;	0,0
726,9102783203125;	372,25;	0,0;	0,0
727,0292358398438;	401,0;	0,0;	0,0
727,148193359375;	363,5;	0,0;	0,0
727,26708984375;	370,5;	0,0;	0,0
727,385986328125;	375,25;	0,0;	0,0
727,5048828125;	363,0;	0,0;	0,0
727,6237182617188;	370,5;	0,0;	0,0
727,7426147460938;	394,75;	0,0;	0,0
727,8614501953125;	381,25;	0,0;	0,0
727,9801635742188;	411,0;	0,0;	0,0
728,0989379882812;	369,5;	0,0;	0,0
728,2177124023438;	347,25;	0,0;	0,0
728,3364868164062;	367,25;	0,0;	0,0
728,4552612304688;	350,0;	0,0;	0,0
728,573974609375;	393,0;	0,0;	0,0
728,6926879882812;	384,75;	0,0;	0,0
728,8113403320312;	384,5;	0,0;	0,0
728,9299926757812;	362,5;	0,0;	0,0
729,0486450195312;	380,0;	0,0;	0,0
729,1672973632812;	394,0;	0,0;	0,0
729,285888671875;	412,25;	0,0;	0,0
729,4044799804688;	384,25;	0,0;	0,0
729,5230712890625;	376,75;	0,0;	0,0
729,6416625976562;	376,5;	0,0;	0,0
729,7601928710938;	375,5;	0,0;	0,0
729,8787231445312;	388,0;	0,0;	0,0
729,9971313476562;	390,5;	0,0;	0,0
730,1156005859375;	396,25;	0,0;	0,0
730,2340698242188;	373,75;	0,0;	0,0
730,3525390625;	358,25;	0,0;	0,0
730,470947265625;	379,5;	0,0;	0,0
730,58935546875;	387,25;	0,0;	0,0
730,707763671875;	425,5;	0,0;	0,0
730,826171875;	410,75;	0,0;	0,0
730,9445190429688;	398,5;	0,0;	0,0
731,0628662109375;	403,25;	0,0;	0,0
731,18115234375;	369,5;	0,0;	0,0
731,2994995117188;	366,25;	0,0;	0,0
731,4177856445312;	360,25;	0,0;	0,0
731,5360107421875;	408,25;	0,0;	0,0
731,654296875;	381,0;	0,0;	0,0
731,7725219726562;	383,25;	0,0;	0,0
731,8906860351562;	379,0;	0,0;	0,0
732,0088500976562;	392,5;	0,0;	0,0
732,1270141601562;	386,0;	0,0;	0,0
732,2451782226562;	397,0;	0,0;	0,0
732,3633422851562;	407,0;	0,0;	0,0
732,4814453125;	454,0;	0,0;	0,0
732,5995483398438;	466,75;	0,0;	0,0
732,7176513671875;	371,0;	0,0;	0,0
732,8357543945312;	381,0;	0,0;	0,0
732,9537963867188;	403,0;	0,0;	0,0
733,07177734375;	374,0;	0,0;	0,0
733,189697265625;	389,25;	0,0;	0,0
733,3076782226562;	400,0;	0,0;	0,0
733,4256591796875;	409,5;	0,0;	0,0
733,5436401367188;	389,0;	0,0;	0,0
733,6615600585938;	398,0;	0,0;	0,0
733,7794799804688;	383,5;	0,0;	0,0
733,8973999023438;	382,0;	0,0;	0,0
734,0152587890625;	396,75;	0,0;	0,0
734,1331176757812;	383,0;	0,0;	0,0
734,2509765625;	409,5;	0,0;	0,0
734,3687744140625;	391,75;	0,0;	0,0
734,486572265625;	373,5;	0,0;	0,0
734,6043701171875;	387,25;	0,0;	0,0
734,72216796875;	419,5;	0,0;	0,0
734,8399047851562;	405,75;	0,0;	0,0
734,9576416015625;	377,25;	0,0;	0,0
735,0753173828125;	421,75;	0,0;	0,0
735,1930541992188;	406,0;	0,0;	0,0
735,3107299804688;	368,75;	0,0;	0,0
735,4283447265625;	405,75;	0,0;	0,0
735,5460205078125;	389,0;	0,0;	0,0
735,6636352539062;	404,75;	0,0;	0,0
735,78125;	403,5;	0,0;	0,0
735,8988647460938;	417,75;	0,0;	0,0
736,016357421875;	377,25;	0,0;	0,0
736,1339111328125;	369,5;	0,0;	0,0
736,25146484375;	391,75;	0,0;	0,0
736,3690185546875;	380,75;	0,0;	0,0
736,4864501953125;	402,75;	0,0;	0,0
736,6039428710938;	405,0;	0,0;	0,0
736,7213745117188;	390,25;	0,0;	0,0
736,8388671875;	429,25;	0,0;	0,0
736,9562377929688;	380,75;	0,0;	0,0
737,0736083984375;	411,25;	0,0;	0,0
737,1910400390625;	388,0;	0,0;	0,0
737,3084106445312;	390,5;	0,0;	0,0
737,4257202148438;	376,5;	0,0;	0,0
737,5430297851562;	417,75;	0,0;	0,0
737,660400390625;	410,5;	0,0;	0,0
737,7776489257812;	408,0;	0,0;	0,0
737,8948974609375;	381,25;	0,0;	0,0
738,01220703125;	421,75;	0,0;	0,0
738,1294555664062;	410,75;	0,0;	0,0
738,24658203125;	391,75;	0,0;	0,0
738,36376953125;	416,5;	0,0;	0,0
738,48095703125;	410,0;	0,0;	0,0
738,5980834960938;	429,25;	0,0;	0,0
738,7152709960938;	444,75;	0,0;	0,0
738,8323974609375;	435,75;	0,0;	0,0
738,949462890625;	449,25;	0,0;	0,0
739,0665893554688;	418,5;	0,0;	0,0
739,18359375;	386,0;	0,0;	0,0
739,3006591796875;	396,25;	0,0;	0,0
739,417724609375;	396,25;	0,0;	0,0
739,53466796875;	387,0;	0,0;	0,0
739,6517333984375;	408,75;	0,0;	0,0
739,7686767578125;	394,5;	0,0;	0,0
739,8856201171875;	407,5;	0,0;	0,0
740,0025634765625;	434,0;	0,0;	0,0
740,1195068359375;	383,0;	0,0;	0,0
740,2363891601562;	411,75;	0,0;	0,0
740,353271484375;	366,25;	0,0;	0,0
740,4701538085938;	404,25;	0,0;	0,0
740,5869750976562;	411,5;	0,0;	0,0
740,7037963867188;	416,375;	0,0;	0,0
740,8206176757812;	421,25;	0,0;	0,0
740,9373779296875;	439,5;	0,0;	0,0
741,05419921875;	496,0;	0,0;	0,0
741,1708984375;	434,25;	0,0;	0,0
741,2876586914062;	419,5;	0,0;	0,0
741,4043579101562;	413,0;	0,0;	0,0
741,5211181640625;	401,75;	0,0;	0,0
741,6377563476562;	414,5;	0,0;	0,0
741,7544555664062;	436,0;	0,0;	0,0
741,8710327148438;	441,75;	0,0;	0,0
741,9876098632812;	448,0;	0,0;	0,0
742,104248046875;	519,75;	0,0;	0,0
742,2208251953125;	774,25;	0,0;	0,0
742,33740234375;	956,0;	0,0;	0,0
742,4539794921875;	643,25;	0,0;	0,0
742,5704956054688;	480,0;	0,0;	0,0
742,68701171875;	477,25;	0,0;	0,0
742,8035278320312;	417,5;	0,0;	0,0
742,9199829101562;	446,5;	0,0;	0,0
743,036376953125;	423,5;	0,0;	0,0
743,1528930664062;	418,5;	0,0;	0,0
743,2692260742188;	395,5;	0,0;	0,0
743,3856201171875;	410,75;	0,0;	0,0
743,5020141601562;	431,75;	0,0;	0,0
743,6183471679688;	446,75;	0,0;	0,0
743,7346801757812;	501,75;	0,0;	0,0
743,8510131835938;	494,75;	0,0;	0,0
743,9673461914062;	637,75;	0,0;	0,0
744,0835571289062;	1090,25;	0,0;	0,0
744,1998901367188;	1507,75;	0,0;	0,0
744,3161010742188;	973,75;	0,0;	0,0
744,4323120117188;	709,75;	0,0;	0,0
744,548583984375;	603,25;	0,0;	0,0
744,664794921875;	494,0;	0,0;	0,0
744,7809448242188;	428,25;	0,0;	0,0
744,8970947265625;	440,75;	0,0;	0,0
745,0132446289062;	427,25;	0,0;	0,0
745,1293334960938;	422,5;	0,0;	0,0
745,2454223632812;	417,5;	0,0;	0,0
745,3615112304688;	407,0;	0,0;	0,0
745,4776000976562;	418,25;	0,0;	0,0
745,5936279296875;	422,0;	0,0;	0,0
745,7096557617188;	416,75;	0,0;	0,0
745,82568359375;	434,75;	0,0;	0,0
745,941650390625;	417,5;	0,0;	0,0
746,0576171875;	425,5;	0,0;	0,0
746,173583984375;	425,5;	0,0;	0,0
746,28955078125;	478,75;	0,0;	0,0
746,4054565429688;	497,75;	0,0;	0,0
746,5213012695312;	612,75;	0,0;	0,0
746,63720703125;	1058,25;	0,0;	0,0
746,7530517578125;	1967,75;	0,0;	0,0
746,868896484375;	1672,75;	0,0;	0,0
746,9846801757812;	861,25;	0,0;	0,0
747,1004638671875;	607,25;	0,0;	0,0
747,2162475585938;	525,0;	0,0;	0,0
747,3320922851562;	456,25;	0,0;	0,0
747,4478149414062;	481,25;	0,0;	0,0
747,5635375976562;	436,5;	0,0;	0,0
747,6792602539062;	476,0;	0,0;	0,0
747,794921875;	472,5;	0,0;	0,0
747,9105834960938;	465,5;	0,0;	0,0
748,0262451171875;	423,0;	0,0;	0,0
748,1419067382812;	397,25;	0,0;	0,0
748,2574462890625;	412,0;	0,0;	0,0
748,373046875;	406,25;	0,0;	0,0
748,488525390625;	426,25;	0,0;	0,0
748,6041259765625;	409,5;	0,0;	0,0
748,7196655273438;	411,5;	0,0;	0,0
748,835205078125;	390,5;	0,0;	0,0
748,95068359375;	413,5;	0,0;	0,0
749,066162109375;	428,5;	0,0;	0,0
749,181640625;	407,25;	0,0;	0,0
749,297119140625;	468,75;	0,0;	0,0
749,4125366210938;	593,75;	0,0;	0,0
749,5278930664062;	471,75;	0,0;	0,0
749,6432495117188;	414,25;	0,0;	0,0
749,7586669921875;	394,0;	0,0;	0,0
749,8740234375;	414,75;	0,0;	0,0
749,9893798828125;	419,75;	0,0;	0,0
750,1046752929688;	408,25;	0,0;	0,0
750,2199096679688;	409,5;	0,0;	0,0
750,335205078125;	414,0;	0,0;	0,0
750,4505004882812;	394,75;	0,0;	0,0
750,5657348632812;	454,75;	0,0;	0,0
750,680908203125;	400,0;	0,0;	0,0
750,796142578125;	429,25;	0,0;	0,0
750,9113159179688;	518,5;	0,0;	0,0
751,0264282226562;	776,75;	0,0;	0,0
751,1416015625;	512,25;	0,0;	0,0
751,2567749023438;	420,0;	0,0;	0,0
751,371826171875;	414,0;	0,0;	0,0
751,4869384765625;	412,75;	0,0;	0,0
751,6019897460938;	382,75;	0,0;	0,0
751,717041015625;	382,0;	0,0;	0,0
751,8320922851562;	395,5;	0,0;	0,0
751,9470825195312;	391,5;	0,0;	0,0
752,0620727539062;	394,25;	0,0;	0,0
752,1770629882812;	373,25;	0,0;	0,0
752,2919921875;	373,0;	0,0;	0,0
752,4069213867188;	402,75;	0,0;	0,0
752,5218505859375;	387,25;	0,0;	0,0
752,63671875;	398,5;	0,0;	0,0
752,7515869140625;	386,5;	0,0;	0,0
752,866455078125;	396,0;	0,0;	0,0
752,9813232421875;	427,25;	0,0;	0,0
753,0961303710938;	425,5;	0,0;	0,0
753,2108764648438;	376,75;	0,0;	0,0
753,32568359375;	404,25;	0,0;	0,0
753,4404296875;	354,5;	0,0;	0,0
753,55517578125;	396,0;	0,0;	0,0
753,669921875;	384,75;	0,0;	0,0
753,7846069335938;	374,25;	0,0;	0,0
753,8992919921875;	385,0;	0,0;	0,0
754,0139770507812;	364,25;	0,0;	0,0
754,128662109375;	399,0;	0,0;	0,0
754,2432250976562;	394,75;	0,0;	0,0
754,3578491210938;	395,5;	0,0;	0,0
754,4724731445312;	398,5;	0,0;	0,0
754,5870361328125;	400,5;	0,0;	0,0
754,7015991210938;	404,0;	0,0;	0,0
754,8161010742188;	355,25;	0,0;	0,0
754,9306640625;	413,25;	0,0;	0,0
755,045166015625;	364,75;	0,0;	0,0
755,1596069335938;	402,25;	0,0;	0,0
755,2740478515625;	393,5;	0,0;	0,0
755,3885498046875;	392,5;	0,0;	0,0
755,5029907226562;	404,0;	0,0;	0,0
755,6173706054688;	382,75;	0,0;	0,0
755,7317504882812;	394,0;	0,0;	0,0
755,8460693359375;	394,75;	0,0;	0,0
755,96044921875;	376,75;	0,0;	0,0
756,0748291015625;	413,0;	0,0;	0,0
756,1890869140625;	386,25;	0,0;	0,0
756,3034057617188;	406,0;	0,0;	0,0
756,4176635742188;	412,75;	0,0;	0,0
756,5319213867188;	397,25;	0,0;	0,0
756,6461181640625;	405,5;	0,0;	0,0
756,7603759765625;	406,0;	0,0;	0,0
756,8745727539062;	428,0;	0,0;	0,0
756,9887084960938;	398,25;	0,0;	0,0
757,1029052734375;	394,5;	0,0;	0,0
757,217041015625;	366,25;	0,0;	0,0
757,3311157226562;	378,0;	0,0;	0,0
757,4452514648438;	382,0;	0,0;	0,0
757,559326171875;	377,0;	0,0;	0,0
757,6734008789062;	372,75;	0,0;	0,0
757,7874145507812;	374,0;	0,0;	0,0
757,9013671875;	380,5;	0,0;	0,0
758,0154418945312;	408,5;	0,0;	0,0
758,1293334960938;	402,5;	0,0;	0,0
758,2433471679688;	393,25;	0,0;	0,0
758,3572998046875;	431,0;	0,0;	0,0
758,4712524414062;	479,75;	0,0;	0,0
758,5850830078125;	463,75;	0,0;	0,0
758,698974609375;	386,25;	0,0;	0,0
758,8128662109375;	387,0;	0,0;	0,0
758,9267578125;	379,0;	0,0;	0,0
759,04052734375;	372,75;	0,0;	0,0
759,1543579101562;	407,25;	0,0;	0,0
759,2681884765625;	408,0;	0,0;	0,0
759,3819580078125;	369,5;	0,0;	0,0
759,4956665039062;	390,0;	0,0;	0,0
759,6094360351562;	368,25;	0,0;	0,0
759,72314453125;	365,5;	0,0;	0,0
759,8368530273438;	416,5;	0,0;	0,0
759,9505615234375;	382,25;	0,0;	0,0
760,064208984375;	395,5;	0,0;	0,0
760,1778564453125;	417,0;	0,0;	0,0
760,2914428710938;	415,75;	0,0;	0,0
760,4050903320312;	420,25;	0,0;	0,0
760,5186157226562;	364,5;	0,0;	0,0
760,6322021484375;	417,25;	0,0;	0,0
760,7457275390625;	391,0;	0,0;	0,0
760,8593139648438;	386,25;	0,0;	0,0
760,9727783203125;	408,5;	0,0;	0,0
761,0863037109375;	368,25;	0,0;	0,0
761,1997680664062;	387,5;	0,0;	0,0
761,313232421875;	410,0;	0,0;	0,0
761,4266357421875;	403,0;	0,0;	0,0
761,5400390625;	386,25;	0,0;	0,0
761,6534423828125;	404,5;	0,0;	0,0
761,766845703125;	436,75;	0,0;	0,0
761,880126953125;	416,5;	0,0;	0,0
761,9935302734375;	418,5;	0,0;	0,0
762,1068115234375;	408,5;	0,0;	0,0
762,2200927734375;	392,75;	0,0;	0,0
762,3333740234375;	427,25;	0,0;	0,0
762,4466552734375;	416,75;	0,0;	0,0
762,5598754882812;	448,75;	0,0;	0,0
762,673095703125;	424,25;	0,0;	0,0
762,7863159179688;	422,25;	0,0;	0,0
762,8994750976562;	420,0;	0,0;	0,0
763,0126342773438;	424,25;	0,0;	0,0
763,1257934570312;	436,25;	0,0;	0,0
763,2388916015625;	437,5;	0,0;	0,0
763,3519897460938;	444,0;	0,0;	0,0
763,465087890625;	479,0;	0,0;	0,0
763,578125;	475,5;	0,0;	0,0
763,691162109375;	468,0;	0,0;	0,0
763,80419921875;	472,25;	0,0;	0,0
763,917236328125;	469,5;	0,0;	0,0
764,0302124023438;	492,0;	0,0;	0,0
764,1431884765625;	493,25;	0,0;	0,0
764,256103515625;	517,0;	0,0;	0,0
764,3690795898438;	548,0;	0,0;	0,0
764,4819946289062;	518,75;	0,0;	0,0
764,5948486328125;	545,5;	0,0;	0,0
764,707763671875;	587,5;	0,0;	0,0
764,820556640625;	579,0;	0,0;	0,0
764,9334106445312;	609,5;	0,0;	0,0
765,0462646484375;	686,75;	0,0;	0,0
765,1590576171875;	726,75;	0,0;	0,0
765,2718505859375;	767,25;	0,0;	0,0
765,384521484375;	929,0;	0,0;	0,0
765,497314453125;	1031,75;	0,0;	0,0
765,6100463867188;	1273,75;	0,0;	0,0
765,7227783203125;	1554,25;	0,0;	0,0
765,8353881835938;	2092,5;	0,0;	0,0
765,9480590820312;	2935,5;	0,0;	0,0
766,0607299804688;	4673,75;	0,0;	0,0
766,17333984375;	7903,75;	0,0;	0,0
766,2859497070312;	13806,5;	0,0;	0,0
766,3984985351562;	16383,75;	0,0;	0,0
766,5111083984375;	13951,75;	0,0;	0,0
766,6236572265625;	7520,75;	0,0;	0,0
766,7361450195312;	4281,25;	0,0;	0,0
766,8486938476562;	2843,75;	0,0;	0,0
766,961181640625;	2082,25;	0,0;	0,0
767,0736694335938;	1591,25;	0,0;	0,0
767,1860961914062;	1303,25;	0,0;	0,0
767,2984619140625;	1125,0;	0,0;	0,0
767,4109497070312;	970,75;	0,0;	0,0
767,5233154296875;	868,5;	0,0;	0,0
767,6357421875;	821,0;	0,0;	0,0
767,748046875;	768,0;	0,0;	0,0
767,8602905273438;	709,0;	0,0;	0,0
767,97265625;	713,75;	0,0;	0,0
768,0849609375;	652,25;	0,0;	0,0
768,1972045898438;	672,5;	0,0;	0,0
768,3094482421875;	636,5;	0,0;	0,0
768,4216918945312;	652,5;	0,0;	0,0
768,533935546875;	608,25;	0,0;	0,0
768,6461181640625;	645,5;	0,0;	0,0
768,75830078125;	710,75;	0,0;	0,0
768,8704223632812;	731,75;	0,0;	0,0
768,9826049804688;	823,75;	0,0;	0,0
769,0947265625;	928,5;	0,0;	0,0
769,2068481445312;	1168,25;	0,0;	0,0
769,3189086914062;	1495,75;	0,0;	0,0
769,4309692382812;	2256,25;	0,0;	0,0
769,5430297851562;	3962,75;	0,0;	0,0
769,655029296875;	8391,25;	0,0;	0,0
769,7670288085938;	14331,5;	0,0;	0,0
769,8790283203125;	13111,25;	0,0;	0,0
769,990966796875;	6247,0;	0,0;	0,0
770,1029663085938;	3018,75;	0,0;	0,0
770,2149047851562;	1962,0;	0,0;	0,0
770,3267822265625;	1352,25;	0,0;	0,0
770,4385986328125;	1084,0;	0,0;	0,0
770,5504760742188;	922,5;	0,0;	0,0
770,662353515625;	817,25;	0,0;	0,0
770,7742309570312;	728,5;	0,0;	0,0
770,8860473632812;	662,0;	0,0;	0,0
770,997802734375;	635,0;	0,0;	0,0
771,1095581054688;	613,75;	0,0;	0,0
771,2213134765625;	573,5;	0,0;	0,0
771,3330078125;	544,25;	0,0;	0,0
771,4447631835938;	511,5;	0,0;	0,0
771,5564575195312;	507,5;	0,0;	0,0
771,6680908203125;	525,25;	0,0;	0,0
771,77978515625;	468,75;	0,0;	0,0
771,8914184570312;	481,0;	0,0;	0,0
772,0030517578125;	478,25;	0,0;	0,0
772,1146240234375;	439,25;	0,0;	0,0
772,2261962890625;	479,0;	0,0;	0,0
772,3377685546875;	465,25;	0,0;	0,0
772,4492797851562;	480,5;	0,0;	0,0
772,5608520507812;	453,5;	0,0;	0,0
772,6722412109375;	418,5;	0,0;	0,0
772,78369140625;	424,5;	0,0;	0,0
772,8952026367188;	419,0;	0,0;	0,0
773,0066528320312;	423,25;	0,0;	0,0
773,1181030273438;	428,75;	0,0;	0,0
773,2294921875;	408,25;	0,0;	0,0
773,3408203125;	406,25;	0,0;	0,0
773,4522094726562;	419,5;	0,0;	0,0
773,5635986328125;	419,5;	0,0;	0,0
773,6748657226562;	429,25;	0,0;	0,0
773,7861938476562;	389,5;	0,0;	0,0
773,8974609375;	413,5;	0,0;	0,0
774,0087280273438;	373,75;	0,0;	0,0
774,1199340820312;	407,75;	0,0;	0,0
774,231201171875;	420,5;	0,0;	0,0
774,3424072265625;	392,25;	0,0;	0,0
774,45361328125;	392,75;	0,0;	0,0
774,5647583007812;	392,25;	0,0;	0,0
774,6759033203125;	398,75;	0,0;	0,0
774,7870483398438;	400,75;	0,0;	0,0
774,8981323242188;	360,0;	0,0;	0,0
775,0092163085938;	362,25;	0,0;	0,0
775,1203002929688;	375,0;	0,0;	0,0
775,2313232421875;	395,75;	0,0;	0,0
775,3423461914062;	411,25;	0,0;	0,0
775,453369140625;	387,0;	0,0;	0,0
775,5643920898438;	394,5;	0,0;	0,0
775,6753540039062;	372,5;	0,0;	0,0
775,7863159179688;	407,75;	0,0;	0,0
775,897216796875;	403,5;	0,0;	0,0
776,0081176757812;	386,0;	0,0;	0,0
776,1190185546875;	382,75;	0,0;	0,0
776,2298583984375;	393,75;	0,0;	0,0
776,3407592773438;	432,75;	0,0;	0,0
776,4515991210938;	455,25;	0,0;	0,0
776,5623779296875;	488,5;	0,0;	0,0
776,6732177734375;	546,75;	0,0;	0,0
776,7839965820312;	678,25;	0,0;	0,0
776,8947143554688;	940,75;	0,0;	0,0
777,0054931640625;	1780,0;	0,0;	0,0
777,1161499023438;	3201,25;	0,0;	0,0
777,2269287109375;	2656,75;	0,0;	0,0
777,3375854492188;	3006,5;	0,0;	0,0
777,4481201171875;	2436,25;	0,0;	0,0
777,558837890625;	1450,0;	0,0;	0,0
777,6693725585938;	755,0;	0,0;	0,0
777,7799682617188;	582,75;	0,0;	0,0
777,890625;	506,75;	0,0;	0,0
778,0011596679688;	515,5;	0,0;	0,0
778,1116943359375;	454,0;	0,0;	0,0
778,2222290039062;	415,0;	0,0;	0,0
778,3327026367188;	394,75;	0,0;	0,0
778,4431762695312;	398,25;	0,0;	0,0
778,5536499023438;	383,75;	0,0;	0,0
778,6640625;	399,5;	0,0;	0,0
778,7744750976562;	371,0;	0,0;	0,0
778,8848876953125;	367,25;	0,0;	0,0
778,9953002929688;	369,5;	0,0;	0,0
779,1056518554688;	344,75;	0,0;	0,0
779,2160034179688;	354,75;	0,0;	0,0
779,3263549804688;	395,5;	0,0;	0,0
779,4365844726562;	342,0;	0,0;	0,0
779,546875;	378,75;	0,0;	0,0
779,6571655273438;	392,75;	0,0;	0,0
779,7673950195312;	466,25;	0,0;	0,0
779,8776245117188;	940,75;	0,0;	0,0
779,9878540039062;	1102,0;	0,0;	0,0
780,0980224609375;	413,25;	0,0;	0,0
780,2081909179688;	376,25;	0,0;	0,0
780,3182983398438;	344,0;	0,0;	0,0
780,428466796875;	349,25;	0,0;	0,0
780,53857421875;	364,0;	0,0;	0,0
780,6486206054688;	361,0;	0,0;	0,0
780,7587280273438;	354,5;	0,0;	0,0
780,8687744140625;	350,5;	0,0;	0,0
780,978759765625;	340,0;	0,0;	0,0
781,0888061523438;	337,5;	0,0;	0,0
781,1987915039062;	343,5;	0,0;	0,0
781,3087768554688;	363,25;	0,0;	0,0
781,418701171875;	369,75;	0,0;	0,0
781,5286254882812;	340,0;	0,0;	0,0
781,6385498046875;	321,25;	0,0;	0,0
781,7484741210938;	346,75;	0,0;	0,0
781,8583374023438;	350,0;	0,0;	0,0
781,9681396484375;	363,75;	0,0;	0,0
782,0780029296875;	339,5;	0,0;	0,0
782,187744140625;	371,5;	0,0;	0,0
782,2975463867188;	331,75;	0,0;	0,0
782,4072875976562;	335,0;	0,0;	0,0
782,51708984375;	334,75;	0,0;	0,0
782,6267700195312;	319,25;	0,0;	0,0
782,7365112304688;	335,75;	0,0;	0,0
782,84619140625;	355,75;	0,0;	0,0
782,955810546875;	374,5;	0,0;	0,0
783,0654907226562;	374,75;	0,0;	0,0
783,1751098632812;	432,0;	0,0;	0,0
783,2847290039062;	369,25;	0,0;	0,0
783,394287109375;	351,75;	0,0;	0,0
783,50390625;	342,75;	0,0;	0,0
783,6134643554688;	354,75;	0,0;	0,0
783,7229614257812;	341,5;	0,0;	0,0
783,83251953125;	333,5;	0,0;	0,0
783,9420166015625;	341,25;	0,0;	0,0
784,0514526367188;	345,75;	0,0;	0,0
784,1609497070312;	313,75;	0,0;	0,0
784,2703247070312;	332,75;	0,0;	0,0
784,3797607421875;	338,25;	0,0;	0,0
784,4891967773438;	340,5;	0,0;	0,0
784,5985717773438;	348,25;	0,0;	0,0
784,7078857421875;	320,75;	0,0;	0,0
784,8172607421875;	338,25;	0,0;	0,0
784,9265747070312;	321,5;	0,0;	0,0
785,0358276367188;	331,25;	0,0;	0,0
785,1451416015625;	339,0;	0,0;	0,0
785,2543334960938;	328,75;	0,0;	0,0
785,3636474609375;	328,0;	0,0;	0,0
785,4728393554688;	327,75;	0,0;	0,0
785,58203125;	315,0;	0,0;	0,0
785,691162109375;	332,0;	0,0;	0,0
785,80029296875;	334,75;	0,0;	0,0
785,9094848632812;	328,0;	0,0;	0,0
786,0186157226562;	299,25;	0,0;	0,0
786,127685546875;	336,5;	0,0;	0,0
786,23681640625;	327,5;	0,0;	0,0
786,3458251953125;	314,25;	0,0;	0,0
786,454833984375;	330,5;	0,0;	0,0
786,5638427734375;	340,5;	0,0;	0,0
786,6727905273438;	354,25;	0,0;	0,0
786,7817993164062;	337,25;	0,0;	0,0
786,8907470703125;	324,5;	0,0;	0,0
786,999755859375;	335,25;	0,0;	0,0
787,108642578125;	336,25;	0,0;	0,0
787,217529296875;	331,0;	0,0;	0,0
787,326416015625;	311,0;	0,0;	0,0
787,4352416992188;	349,25;	0,0;	0,0
787,5440063476562;	308,5;	0,0;	0,0
787,65283203125;	355,5;	0,0;	0,0
787,7616577148438;	305,5;	0,0;	0,0
787,8704223632812;	308,0;	0,0;	0,0
787,979248046875;	338,0;	0,0;	0,0
788,0879516601562;	328,75;	0,0;	0,0
788,1966552734375;	312,75;	0,0;	0,0
788,3053588867188;	331,75;	0,0;	0,0
788,4140625;	340,5;	0,0;	0,0
788,522705078125;	318,5;	0,0;	0,0
788,63134765625;	330,25;	0,0;	0,0
788,7399291992188;	293,75;	0,0;	0,0
788,8485717773438;	338,75;	0,0;	0,0
788,9571533203125;	323,75;	0,0;	0,0
789,065673828125;	348,75;	0,0;	0,0
789,1741943359375;	324,0;	0,0;	0,0
789,28271484375;	315,75;	0,0;	0,0
789,3912353515625;	304,75;	0,0;	0,0
789,499755859375;	331,75;	0,0;	0,0
789,608154296875;	324,25;	0,0;	0,0
789,7166137695312;	318,5;	0,0;	0,0
789,8250732421875;	348,75;	0,0;	0,0
789,9334106445312;	313,25;	0,0;	0,0
790,0418090820312;	327,25;	0,0;	0,0
790,150146484375;	344,0;	0,0;	0,0
790,2584838867188;	332,25;	0,0;	0,0
790,3667602539062;	318,25;	0,0;	0,0
790,4751586914062;	335,5;	0,0;	0,0
790,5833740234375;	349,0;	0,0;	0,0
790,691650390625;	319,0;	0,0;	0,0
790,7998657226562;	342,5;	0,0;	0,0
790,9081420898438;	332,5;	0,0;	0,0
791,0162963867188;	316,25;	0,0;	0,0
791,1244506835938;	334,5;	0,0;	0,0
791,2326049804688;	334,5;	0,0;	0,0
791,3406982421875;	315,25;	0,0;	0,0
791,4488525390625;	330,75;	0,0;	0,0
791,5569458007812;	351,0;	0,0;	0,0
791,6650390625;	308,75;	0,0;	0,0
791,7730102539062;	311,75;	0,0;	0,0
791,881103515625;	326,0;	0,0;	0,0
791,9890747070312;	325,25;	0,0;	0,0
792,0971069335938;	325,5;	0,0;	0,0
792,205078125;	333,75;	0,0;	0,0
792,31298828125;	322,75;	0,0;	0,0
792,4209594726562;	297,0;	0,0;	0,0
792,5288696289062;	339,0;	0,0;	0,0
792,6367797851562;	343,75;	0,0;	0,0
792,74462890625;	323,75;	0,0;	0,0
792,8524780273438;	329,25;	0,0;	0,0
792,9603271484375;	324,5;	0,0;	0,0
793,068115234375;	346,5;	0,0;	0,0
793,1759033203125;	324,75;	0,0;	0,0
793,2837524414062;	344,25;	0,0;	0,0
793,3914794921875;	327,5;	0,0;	0,0
793,4992065429688;	350,75;	0,0;	0,0
793,60693359375;	395,75;	0,0;	0,0
793,714599609375;	385,75;	0,0;	0,0
793,822265625;	346,5;	0,0;	0,0
793,9299926757812;	322,25;	0,0;	0,0
794,03759765625;	332,25;	0,0;	0,0
794,1452026367188;	340,75;	0,0;	0,0
794,2528076171875;	352,75;	0,0;	0,0
794,3603515625;	370,25;	0,0;	0,0
794,4678955078125;	469,5;	0,0;	0,0
794,575439453125;	642,0;	0,0;	0,0
794,6829833984375;	896,25;	0,0;	0,0
794,7904663085938;	543,25;	0,0;	0,0
794,89794921875;	411,0;	0,0;	0,0
795,00537109375;	429,75;	0,0;	0,0
795,11279296875;	449,0;	0,0;	0,0
795,2202758789062;	396,5;	0,0;	0,0
795,3275756835938;	311,5;	0,0;	0,0
795,4349975585938;	351,5;	0,0;	0,0
795,5422973632812;	308,25;	0,0;	0,0
795,649658203125;	325,0;	0,0;	0,0
795,7569580078125;	312,75;	0,0;	0,0
795,8642578125;	301,75;	0,0;	0,0
795,9714965820312;	314,25;	0,0;	0,0
796,0787963867188;	327,5;	0,0;	0,0
796,1859741210938;	305,5;	0,0;	0,0
796,293212890625;	327,25;	0,0;	0,0
796,400390625;	317,25;	0,0;	0,0
796,507568359375;	311,5;	0,0;	0,0
796,6146850585938;	327,25;	0,0;	0,0
796,7218017578125;	303,75;	0,0;	0,0
796,8289794921875;	315,5;	0,0;	0,0
796,93603515625;	305,0;	0,0;	0,0
797,0430908203125;	310,75;	0,0;	0,0
797,150146484375;	305,0;	0,0;	0,0
797,2572021484375;	312,75;	0,0;	0,0
797,3641967773438;	316,25;	0,0;	0,0
797,47119140625;	305,5;	0,0;	0,0
797,578125;	316,25;	0,0;	0,0
797,68505859375;	301,5;	0,0;	0,0
797,7919921875;	309,25;	0,0;	0,0
797,89892578125;	294,0;	0,0;	0,0
798,0057983398438;	300,25;	0,0;	0,0
798,1126708984375;	292,5;	0,0;	0,0
798,219482421875;	305,25;	0,0;	0,0
798,3263549804688;	287,5;	0,0;	0,0
798,4331665039062;	325,5;	0,0;	0,0
798,5399169921875;	294,5;	0,0;	0,0
798,646728515625;	312,75;	0,0;	0,0
798,75341796875;	308,0;	0,0;	0,0
798,8601684570312;	298,75;	0,0;	0,0
798,9668579101562;	287,75;	0,0;	0,0
799,0735473632812;	287,25;	0,0;	0,0
799,18017578125;	315,75;	0,0;	0,0
799,2868041992188;	313,5;	0,0;	0,0
799,3934936523438;	328,75;	0,0;	0,0
799,5000610351562;	297,25;	0,0;	0,0
799,6066284179688;	329,0;	0,0;	0,0
799,7131958007812;	355,25;	0,0;	0,0
799,8197631835938;	385,25;	0,0;	0,0
799,9263305664062;	340,25;	0,0;	0,0
800,0327758789062;	318,0;	0,0;	0,0
800,1392822265625;	304,0;	0,0;	0,0
800,2457275390625;	287,5;	0,0;	0,0
800,3521728515625;	314,0;	0,0;	0,0
800,4586181640625;	298,0;	0,0;	0,0
800,56494140625;	289,5;	0,0;	0,0
800,67138671875;	321,0;	0,0;	0,0
800,7776489257812;	290,75;	0,0;	0,0
800,884033203125;	308,0;	0,0;	0,0
800,9902954101562;	299,5;	0,0;	0,0
801,0966186523438;	294,25;	0,0;	0,0
801,202880859375;	299,5;	0,0;	0,0
801,3091430664062;	306,75;	0,0;	0,0
801,4154052734375;	323,5;	0,0;	0,0
801,5216064453125;	313,75;	0,0;	0,0
801,6278076171875;	287,5;	0,0;	0,0
801,7339477539062;	301,25;	0,0;	0,0
801,8401489257812;	311,25;	0,0;	0,0
801,9462280273438;	311,25;	0,0;	0,0
802,0523681640625;	284,25;	0,0;	0,0
802,158447265625;	303,75;	0,0;	0,0
802,2645263671875;	300,5;	0,0;	0,0
802,37060546875;	286,5;	0,0;	0,0
802,4766235351562;	279,5;	0,0;	0,0
802,5826416015625;	307,0;	0,0;	0,0
802,6885986328125;	308,75;	0,0;	0,0
802,7945556640625;	316,75;	0,0;	0,0
802,9005737304688;	300,75;	0,0;	0,0
803,0065307617188;	310,75;	0,0;	0,0
803,1124267578125;	278,0;	0,0;	0,0
803,2183227539062;	293,25;	0,0;	0,0
803,3241577148438;	324,25;	0,0;	0,0
803,4299926757812;	307,25;	0,0;	0,0
803,5358276367188;	291,25;	0,0;	0,0
803,6416015625;	294,5;	0,0;	0,0
803,7474365234375;	286,0;	0,0;	0,0
803,8532104492188;	283,5;	0,0;	0,0
803,9589233398438;	287,5;	0,0;	0,0
804,0646362304688;	294,0;	0,0;	0,0
804,17041015625;	294,25;	0,0;	0,0
804,2760009765625;	307,0;	0,0;	0,0
804,3817138671875;	304,75;	0,0;	0,0
804,4873657226562;	377,25;	0,0;	0,0
804,5929565429688;	372,0;	0,0;	0,0
804,6985473632812;	296,0;	0,0;	0,0
804,80419921875;	316,5;	0,0;	0,0
804,9097290039062;	289,25;	0,0;	0,0
805,0153198242188;	282,5;	0,0;	0,0
805,1207275390625;	286,5;	0,0;	0,0
805,226318359375;	288,0;	0,0;	0,0
805,3316650390625;	288,75;	0,0;	0,0
805,437255859375;	293,0;	0,0;	0,0
805,5426635742188;	263,25;	0,0;	0,0
805,6481323242188;	319,25;	0,0;	0,0
805,75341796875;	281,5;	0,0;	0,0
805,8588256835938;	290,75;	0,0;	0,0
805,9641723632812;	298,0;	0,0;	0,0
806,0695190429688;	301,5;	0,0;	0,0
806,1748657226562;	296,0;	0,0;	0,0
806,2801513671875;	297,75;	0,0;	0,0
806,3853759765625;	273,75;	0,0;	0,0
806,4906005859375;	288,0;	0,0;	0,0
806,5958862304688;	280,25;	0,0;	0,0
806,7011108398438;	323,0;	0,0;	0,0
806,8062744140625;	284,75;	0,0;	0,0
806,9114379882812;	281,75;	0,0;	0,0
807,0166625976562;	295,0;	0,0;	0,0
807,1217041015625;	299,0;	0,0;	0,0
807,2268676757812;	294,5;	0,0;	0,0
807,3319091796875;	309,25;	0,0;	0,0
807,43701171875;	290,75;	0,0;	0,0
807,5420532226562;	284,5;	0,0;	0,0
807,6470947265625;	294,5;	0,0;	0,0
807,7521362304688;	303,25;	0,0;	0,0
807,8571166992188;	309,5;	0,0;	0,0
807,9620361328125;	309,25;	0,0;	0,0
808,0669555664062;	302,25;	0,0;	0,0
808,1719360351562;	306,25;	0,0;	0,0
808,27685546875;	314,5;	0,0;	0,0
808,3817138671875;	327,75;	0,0;	0,0
808,486572265625;	327,0;	0,0;	0,0
808,5914306640625;	322,0;	0,0;	0,0
808,6962890625;	284,5;	0,0;	0,0
808,8010864257812;	286,75;	0,0;	0,0
808,9058837890625;	288,25;	0,0;	0,0
809,0105590820312;	294,0;	0,0;	0,0
809,1152954101562;	287,0;	0,0;	0,0
809,2200317382812;	303,25;	0,0;	0,0
809,3247680664062;	294,75;	0,0;	0,0
809,4293823242188;	306,0;	0,0;	0,0
809,5341186523438;	289,5;	0,0;	0,0
809,6386108398438;	302,5;	0,0;	0,0
809,7433471679688;	304,0;	0,0;	0,0
809,847900390625;	281,75;	0,0;	0,0
809,9525146484375;	286,0;	0,0;	0,0
810,0570068359375;	285,25;	0,0;	0,0
810,16162109375;	288,75;	0,0;	0,0
810,2660522460938;	294,0;	0,0;	0,0
810,3705444335938;	308,75;	0,0;	0,0
810,4750366210938;	288,0;	0,0;	0,0
810,5794677734375;	280,0;	0,0;	0,0
810,6838989257812;	289,25;	0,0;	0,0
810,7882690429688;	301,5;	0,0;	0,0
810,8927001953125;	292,25;	0,0;	0,0
810,9970703125;	277,5;	0,0;	0,0
811,1013793945312;	286,0;	0,0;	0,0
811,2057495117188;	292,5;	0,0;	0,0
811,31005859375;	292,25;	0,0;	0,0
811,414306640625;	341,0;	0,0;	0,0
811,5186157226562;	290,75;	0,0;	0,0
811,6228637695312;	310,0;	0,0;	0,0
811,7271118164062;	294,75;	0,0;	0,0
811,8312377929688;	273,0;	0,0;	0,0
811,9354858398438;	308,5;	0,0;	0,0
812,0396118164062;	296,75;	0,0;	0,0
812,1437377929688;	264,5;	0,0;	0,0
812,2478637695312;	288,25;	0,0;	0,0
812,3519897460938;	282,5;	0,0;	0,0
812,4560546875;	278,75;	0,0;	0,0
812,5601196289062;	342,75;	0,0;	0,0
812,6641235351562;	283,25;	0,0;	0,0
812,7681884765625;	290,0;	0,0;	0,0
812,8721313476562;	282,75;	0,0;	0,0
812,9761352539062;	281,25;	0,0;	0,0
813,0801391601562;	265,25;	0,0;	0,0
813,1840209960938;	294,5;	0,0;	0,0
813,2879638671875;	280,0;	0,0;	0,0
813,391845703125;	300,25;	0,0;	0,0
813,4957275390625;	308,0;	0,0;	0,0
813,5995483398438;	295,0;	0,0;	0,0
813,703369140625;	284,75;	0,0;	0,0
813,8071899414062;	288,5;	0,0;	0,0
813,9110107421875;	271,5;	0,0;	0,0
814,0147094726562;	296,0;	0,0;	0,0
814,118408203125;	274,0;	0,0;	0,0
814,2222290039062;	281,25;	0,0;	0,0
814,3258666992188;	299,75;	0,0;	0,0
814,4295654296875;	292,25;	0,0;	0,0
814,533203125;	272,0;	0,0;	0,0
814,6369018554688;	290,5;	0,0;	0,0
814,740478515625;	279,5;	0,0;	0,0
814,8440551757812;	297,25;	0,0;	0,0
814,9476928710938;	321,0;	0,0;	0,0
815,0512084960938;	296,0;	0,0;	0,0
815,15478515625;	292,75;	0,0;	0,0
815,25830078125;	299,75;	0,0;	0,0
815,3617553710938;	282,5;	0,0;	0,0
815,4652099609375;	290,5;	0,0;	0,0
815,5686645507812;	277,5;	0,0;	0,0
815,6721801757812;	307,75;	0,0;	0,0
815,7755737304688;	268,25;	0,0;	0,0
815,8789672851562;	275,75;	0,0;	0,0
815,9823608398438;	315,25;	0,0;	0,0
816,085693359375;	305,25;	0,0;	0,0
816,18896484375;	270,25;	0,0;	0,0
816,2922973632812;	272,0;	0,0;	0,0
816,3955688476562;	293,25;	0,0;	0,0
816,4989013671875;	297,0;	0,0;	0,0
816,6021118164062;	312,0;	0,0;	0,0
816,705322265625;	317,5;	0,0;	0,0
816,8085327148438;	287,5;	0,0;	0,0
816,9117431640625;	307,5;	0,0;	0,0
817,014892578125;	300,0;	0,0;	0,0
817,1180419921875;	291,5;	0,0;	0,0
817,22119140625;	313,25;	0,0;	0,0
817,32421875;	282,25;	0,0;	0,0
817,4273681640625;	320,25;	0,0;	0,0
817,5303955078125;	334,0;	0,0;	0,0
817,6334228515625;	318,25;	0,0;	0,0
817,7365112304688;	363,5;	0,0;	0,0
817,8394775390625;	411,5;	0,0;	0,0
817,9424438476562;	443,5;	0,0;	0,0
818,04541015625;	718,0;	0,0;	0,0
818,1483154296875;	1575,5;	0,0;	0,0
818,251220703125;	3328,25;	0,0;	0,0
818,3541259765625;	1784,75;	0,0;	0,0
818,45703125;	1050,25;	0,0;	0,0
818,5598754882812;	754,5;	0,0;	0,0
818,6627197265625;	796,75;	0,0;	0,0
818,7654418945312;	865,5;	0,0;	0,0
818,8682861328125;	637,75;	0,0;	0,0
818,9710083007812;	538,0;	0,0;	0,0
819,0737915039062;	567,25;	0,0;	0,0
819,1764526367188;	840,25;	0,0;	0,0
819,2791137695312;	1918,25;	0,0;	0,0
819,3818359375;	4405,75;	0,0;	0,0
819,4844970703125;	2780,0;	0,0;	0,0
819,587158203125;	843,5;	0,0;	0,0
819,6897583007812;	511,0;	0,0;	0,0
819,7923583984375;	451,5;	0,0;	0,0
819,8949584960938;	443,75;	0,0;	0,0
819,9974975585938;	430,0;	0,0;	0,0
820,1000366210938;	373,25;	0,0;	0,0
820,2025146484375;	347,0;	0,0;	0,0
820,3050537109375;	335,25;	0,0;	0,0
820,4075317382812;	316,75;	0,0;	0,0
820,5099487304688;	334,0;	0,0;	0,0
820,6123657226562;	330,0;	0,0;	0,0
820,7147827148438;	333,0;	0,0;	0,0
820,8171997070312;	401,0;	0,0;	0,0
820,9196166992188;	479,75;	0,0;	0,0
821,0219116210938;	556,0;	0,0;	0,0
821,1242065429688;	471,5;	0,0;	0,0
821,2265625;	458,0;	0,0;	0,0
821,3287963867188;	540,0;	0,0;	0,0
821,4310913085938;	848,25;	0,0;	0,0
821,5333251953125;	1423,5;	0,0;	0,0
821,6355590820312;	1277,25;	0,0;	0,0
821,7377319335938;	710,5;	0,0;	0,0
821,8399658203125;	544,0;	0,0;	0,0
821,9420776367188;	604,0;	0,0;	0,0
822,044189453125;	584,25;	0,0;	0,0
822,1463623046875;	717,5;	0,0;	0,0
822,2484741210938;	812,75;	0,0;	0,0
822,3505249023438;	637,0;	0,0;	0,0
822,4525756835938;	441,0;	0,0;	0,0
822,5546264648438;	365,5;	0,0;	0,0
822,6566162109375;	352,25;	0,0;	0,0
822,7586059570312;	391,75;	0,0;	0,0
822,860595703125;	336,5;	0,0;	0,0
822,9625244140625;	361,0;	0,0;	0,0
823,064453125;	353,75;	0,0;	0,0
823,166259765625;	363,0;	0,0;	0,0
823,2682495117188;	330,75;	0,0;	0,0
823,3700561523438;	321,25;	0,0;	0,0
823,471923828125;	325,0;	0,0;	0,0
823,57373046875;	332,75;	0,0;	0,0
823,6754760742188;	310,0;	0,0;	0,0
823,7772827148438;	336,25;	0,0;	0,0
823,8790283203125;	326,5;	0,0;	0,0
823,9807739257812;	432,0;	0,0;	0,0
824,08251953125;	569,25;	0,0;	0,0
824,1842041015625;	780,5;	0,0;	0,0
824,285888671875;	550,0;	0,0;	0,0
824,3875122070312;	411,25;	0,0;	0,0
824,4891357421875;	359,0;	0,0;	0,0
824,5908203125;	333,5;	0,0;	0,0
824,6923828125;	323,25;	0,0;	0,0
824,7938842773438;	312,5;	0,0;	0,0
824,8954467773438;	302,5;	0,0;	0,0
824,9969482421875;	283,0;	0,0;	0,0
825,0985107421875;	303,75;	0,0;	0,0
825,2000122070312;	288,5;	0,0;	0,0
825,3014526367188;	303,75;	0,0;	0,0
825,4028930664062;	284,25;	0,0;	0,0
825,5043334960938;	271,0;	0,0;	0,0
825,6056518554688;	297,25;	0,0;	0,0
825,7070922851562;	297,75;	0,0;	0,0
825,8084106445312;	287,75;	0,0;	0,0
825,9097900390625;	265,5;	0,0;	0,0
826,0110473632812;	281,5;	0,0;	0,0
826,1124267578125;	287,5;	0,0;	0,0
826,2136840820312;	302,75;	0,0;	0,0
826,3148803710938;	282,75;	0,0;	0,0
826,4161376953125;	289,75;	0,0;	0,0
826,517333984375;	274,75;	0,0;	0,0
826,6185302734375;	280,75;	0,0;	0,0
826,7197265625;	296,25;	0,0;	0,0
826,82080078125;	275,25;	0,0;	0,0
826,9219360351562;	269,75;	0,0;	0,0
827,0230712890625;	267,25;	0,0;	0,0
827,1241455078125;	280,75;	0,0;	0,0
827,2252197265625;	295,5;	0,0;	0,0
827,3262939453125;	269,5;	0,0;	0,0
827,42724609375;	283,75;	0,0;	0,0
827,5281982421875;	289,0;	0,0;	0,0
827,6292114257812;	273,25;	0,0;	0,0
827,7301635742188;	263,25;	0,0;	0,0
827,8311157226562;	287,25;	0,0;	0,0
827,9320068359375;	284,25;	0,0;	0,0
828,0328369140625;	277,0;	0,0;	0,0
828,1337890625;	278,0;	0,0;	0,0
828,234619140625;	272,5;	0,0;	0,0
828,3353881835938;	290,5;	0,0;	0,0
828,4362182617188;	273,5;	0,0;	0,0
828,5369873046875;	284,5;	0,0;	0,0
828,6377563476562;	271,5;	0,0;	0,0
828,7384643554688;	273,75;	0,0;	0,0
828,8392333984375;	277,75;	0,0;	0,0
828,93994140625;	268,25;	0,0;	0,0
829,0405883789062;	283,25;	0,0;	0,0
829,1412963867188;	270,75;	0,0;	0,0
829,241943359375;	310,75;	0,0;	0,0
829,3424682617188;	289,25;	0,0;	0,0
829,443115234375;	275,5;	0,0;	0,0
829,543701171875;	288,0;	0,0;	0,0
829,6442260742188;	275,75;	0,0;	0,0
829,7447509765625;	259,25;	0,0;	0,0
829,8452758789062;	276,0;	0,0;	0,0
829,94580078125;	254,25;	0,0;	0,0
830,0462036132812;	279,5;	0,0;	0,0
830,1466674804688;	268,75;	0,0;	0,0
830,2470703125;	276,5;	0,0;	0,0
830,3475341796875;	265,5;	0,0;	0,0
830,4478759765625;	239,0;	0,0;	0,0
830,5482177734375;	264,25;	0,0;	0,0
830,6485595703125;	278,25;	0,0;	0,0
830,7489013671875;	286,75;	0,0;	0,0
830,8491821289062;	273,75;	0,0;	0,0
830,949462890625;	275,5;	0,0;	0,0
831,0497436523438;	289,5;	0,0;	0,0
831,14990234375;	269,0;	0,0;	0,0
831,2501220703125;	255,25;	0,0;	0,0
831,350341796875;	276,75;	0,0;	0,0
831,4505004882812;	270,25;	0,0;	0,0
831,5506591796875;	267,75;	0,0;	0,0
831,6507568359375;	281,5;	0,0;	0,0
831,7508544921875;	279,0;	0,0;	0,0
831,8508911132812;	282,25;	0,0;	0,0
831,9510498046875;	278,0;	0,0;	0,0
832,051025390625;	275,75;	0,0;	0,0
832,1510620117188;	307,25;	0,0;	0,0
832,2509765625;	279,0;	0,0;	0,0
832,3509521484375;	285,0;	0,0;	0,0
832,4509887695312;	299,0;	0,0;	0,0
832,5509033203125;	337,75;	0,0;	0,0
832,6508178710938;	375,0;	0,0;	0,0
832,7506103515625;	282,0;	0,0;	0,0
832,8505249023438;	283,0;	0,0;	0,0
832,9503784179688;	289,0;	0,0;	0,0
833,0502319335938;	294,25;	0,0;	0,0
833,1500244140625;	291,0;	0,0;	0,0
833,249755859375;	282,5;	0,0;	0,0
833,3495483398438;	261,0;	0,0;	0,0
833,4492797851562;	299,0;	0,0;	0,0
833,5490112304688;	281,5;	0,0;	0,0
833,648681640625;	280,5;	0,0;	0,0
833,7484130859375;	272,25;	0,0;	0,0
833,8480224609375;	285,5;	0,0;	0,0
833,9476318359375;	283,5;	0,0;	0,0
834,0473022460938;	265,25;	0,0;	0,0
834,1468505859375;	293,25;	0,0;	0,0
834,2464599609375;	264,0;	0,0;	0,0
834,3460083007812;	257,75;	0,0;	0,0
834,4454956054688;	259,75;	0,0;	0,0
834,5450439453125;	263,0;	0,0;	0,0
834,64453125;	274,5;	0,0;	0,0
834,7439575195312;	248,0;	0,0;	0,0
834,8433837890625;	276,75;	0,0;	0,0
834,9428100585938;	269,75;	0,0;	0,0
835,042236328125;	267,0;	0,0;	0,0
835,1415405273438;	274,75;	0,0;	0,0
835,2409057617188;	269,5;	0,0;	0,0
835,3402709960938;	272,75;	0,0;	0,0
835,4395751953125;	280,25;	0,0;	0,0
835,538818359375;	260,5;	0,0;	0,0
835,6381225585938;	263,75;	0,0;	0,0
835,7373657226562;	250,75;	0,0;	0,0
835,8366088867188;	264,25;	0,0;	0,0
835,9358520507812;	281,5;	0,0;	0,0
836,0350341796875;	269,75;	0,0;	0,0
836,1340942382812;	248,75;	0,0;	0,0
836,2332763671875;	242,75;	0,0;	0,0
836,3323364257812;	268,0;	0,0;	0,0
836,4315185546875;	257,25;	0,0;	0,0
836,530517578125;	264,25;	0,0;	0,0
836,6295776367188;	252,25;	0,0;	0,0
836,7285766601562;	248,75;	0,0;	0,0
836,82763671875;	251,5;	0,0;	0,0
836,9265747070312;	266,0;	0,0;	0,0
837,0255737304688;	281,0;	0,0;	0,0
837,1244506835938;	259,5;	0,0;	0,0
837,2234497070312;	273,75;	0,0;	0,0
837,3223266601562;	278,75;	0,0;	0,0
837,4212036132812;	275,5;	0,0;	0,0
837,5200805664062;	283,0;	0,0;	0,0
837,618896484375;	272,25;	0,0;	0,0
837,7177124023438;	276,75;	0,0;	0,0
837,8165283203125;	276,75;	0,0;	0,0
837,915283203125;	259,25;	0,0;	0,0
838,0140380859375;	262,0;	0,0;	0,0
838,11279296875;	262,5;	0,0;	0,0
838,2114868164062;	268,75;	0,0;	0,0
838,3101196289062;	279,25;	0,0;	0,0
838,4088134765625;	268,5;	0,0;	0,0
838,5075073242188;	301,0;	0,0;	0,0
838,6061401367188;	342,25;	0,0;	0,0
838,7047119140625;	386,25;	0,0;	0,0
838,8032836914062;	288,5;	0,0;	0,0
838,9017944335938;	266,25;	0,0;	0,0
839,0003662109375;	267,0;	0,0;	0,0
839,098876953125;	280,5;	0,0;	0,0
839,1973876953125;	254,0;	0,0;	0,0
839,2958374023438;	282,75;	0,0;	0,0
839,394287109375;	271,0;	0,0;	0,0
839,4927368164062;	270,0;	0,0;	0,0
839,5911254882812;	287,75;	0,0;	0,0
839,6895141601562;	266,0;	0,0;	0,0
839,787841796875;	268,25;	0,0;	0,0
839,8861694335938;	269,5;	0,0;	0,0
839,9844970703125;	274,0;	0,0;	0,0
840,0828247070312;	298,75;	0,0;	0,0
840,1810913085938;	274,0;	0,0;	0,0
840,2793579101562;	252,5;	0,0;	0,0
840,3775024414062;	274,25;	0,0;	0,0
840,475830078125;	269,5;	0,0;	0,0
840,5739135742188;	261,75;	0,0;	0,0
840,6721801757812;	274,0;	0,0;	0,0
840,770263671875;	254,75;	0,0;	0,0
840,868408203125;	260,0;	0,0;	0,0
840,9664916992188;	284,25;	0,0;	0,0
841,0645751953125;	277,75;	0,0;	0,0
841,16259765625;	279,5;	0,0;	0,0
841,2606201171875;	247,75;	0,0;	0,0
841,3587036132812;	257,5;	0,0;	0,0
841,4566650390625;	276,0;	0,0;	0,0
841,5546264648438;	284,25;	0,0;	0,0
841,652587890625;	263,75;	0,0;	0,0
841,75048828125;	273,75;	0,0;	0,0
841,8484497070312;	260,75;	0,0;	0,0
841,9463500976562;	273,5;	0,0;	0,0
842,0441284179688;	276,5;	0,0;	0,0
842,1420288085938;	286,75;	0,0;	0,0
842,2398681640625;	290,25;	0,0;	0,0
842,337646484375;	286,25;	0,0;	0,0
842,4353637695312;	304,25;	0,0;	0,0
842,533203125;	261,25;	0,0;	0,0
842,6309204101562;	275,25;	0,0;	0,0
842,7285766601562;	267,5;	0,0;	0,0
842,8263549804688;	271,5;	0,0;	0,0
842,9240112304688;	273,5;	0,0;	0,0
843,0216064453125;	269,0;	0,0;	0,0
843,1192626953125;	277,5;	0,0;	0,0
843,2168579101562;	274,75;	0,0;	0,0
843,314453125;	257,25;	0,0;	0,0
843,4120483398438;	259,25;	0,0;	0,0
843,509521484375;	263,5;	0,0;	0,0
843,6070556640625;	287,25;	0,0;	0,0
843,7045288085938;	280,25;	0,0;	0,0
843,802001953125;	292,5;	0,0;	0,0
843,8994750976562;	278,0;	0,0;	0,0
843,9968872070312;	306,25;	0,0;	0,0
844,0942993164062;	332,5;	0,0;	0,0
844,191650390625;	359,5;	0,0;	0,0
844,2890014648438;	436,75;	0,0;	0,0
844,3863525390625;	552,0;	0,0;	0,0
844,4837036132812;	879,0;	0,0;	0,0
844,5809326171875;	1104,25;	0,0;	0,0
844,6782836914062;	857,75;	0,0;	0,0
844,7754516601562;	495,75;	0,0;	0,0
844,872802734375;	374,0;	0,0;	0,0
844,9699096679688;	336,0;	0,0;	0,0
845,0671997070312;	333,0;	0,0;	0,0
845,164306640625;	316,25;	0,0;	0,0
845,2614135742188;	270,75;	0,0;	0,0
845,3585815429688;	282,5;	0,0;	0,0
845,4556884765625;	288,5;	0,0;	0,0
845,552734375;	304,0;	0,0;	0,0
845,6498413085938;	270,5;	0,0;	0,0
845,746826171875;	291,75;	0,0;	0,0
845,8438720703125;	289,75;	0,0;	0,0
845,9408569335938;	282,75;	0,0;	0,0
846,037841796875;	283,5;	0,0;	0,0
846,134765625;	286,75;	0,0;	0,0
846,231689453125;	274,75;	0,0;	0,0
846,32861328125;	291,25;	0,0;	0,0
846,4254760742188;	266,25;	0,0;	0,0
846,5223388671875;	247,25;	0,0;	0,0
846,6192016601562;	280,25;	0,0;	0,0
846,716064453125;	306,25;	0,0;	0,0
846,8128051757812;	299,0;	0,0;	0,0
846,9096069335938;	288,0;	0,0;	0,0
847,00634765625;	276,5;	0,0;	0,0
847,1030883789062;	288,0;	0,0;	0,0
847,1998291015625;	265,0;	0,0;	0,0
847,2964477539062;	271,5;	0,0;	0,0
847,3931274414062;	251,0;	0,0;	0,0
847,4898071289062;	275,25;	0,0;	0,0
847,58642578125;	235,0;	0,0;	0,0
847,6829833984375;	248,0;	0,0;	0,0
847,779541015625;	260,75;	0,0;	0,0
847,8760986328125;	276,5;	0,0;	0,0
847,97265625;	265,0;	0,0;	0,0
848,0691528320312;	246,5;	0,0;	0,0
848,1656494140625;	281,5;	0,0;	0,0
848,2621459960938;	266,75;	0,0;	0,0
848,3585815429688;	273,75;	0,0;	0,0
848,4549560546875;	273,0;	0,0;	0,0
848,5513305664062;	259,25;	0,0;	0,0
848,6478271484375;	283,25;	0,0;	0,0
848,7440795898438;	268,75;	0,0;	0,0
848,8405151367188;	261,75;	0,0;	0,0
848,936767578125;	250,5;	0,0;	0,0
849,0330810546875;	280,5;	0,0;	0,0
849,1293334960938;	269,0;	0,0;	0,0
849,2256469726562;	282,75;	0,0;	0,0
849,32177734375;	284,75;	0,0;	0,0
849,4180297851562;	267,75;	0,0;	0,0
849,51416015625;	294,75;	0,0;	0,0
849,6103515625;	301,5;	0,0;	0,0
849,7064819335938;	342,25;	0,0;	0,0
849,8026123046875;	307,75;	0,0;	0,0
849,898681640625;	261,25;	0,0;	0,0
849,9947509765625;	265,25;	0,0;	0,0
850,0908203125;	263,75;	0,0;	0,0
850,1868286132812;	267,5;	0,0;	0,0
850,2828979492188;	286,75;	0,0;	0,0
850,3788452148438;	261,0;	0,0;	0,0
850,474853515625;	255,5;	0,0;	0,0
850,5707397460938;	280,25;	0,0;	0,0
850,6666870117188;	237,25;	0,0;	0,0
850,7625732421875;	251,25;	0,0;	0,0
850,8583984375;	263,0;	0,0;	0,0
850,9542846679688;	265,25;	0,0;	0,0
851,0501098632812;	275,0;	0,0;	0,0
851,1459350585938;	277,5;	0,0;	0,0
851,24169921875;	273,0;	0,0;	0,0
851,3374633789062;	287,5;	0,0;	0,0
851,4332275390625;	278,5;	0,0;	0,0
851,5289306640625;	264,0;	0,0;	0,0
851,6246337890625;	262,75;	0,0;	0,0
851,7203369140625;	271,5;	0,0;	0,0
851,8159790039062;	275,25;	0,0;	0,0
851,91162109375;	249,75;	0,0;	0,0
852,0072631835938;	281,0;	0,0;	0,0
852,1028442382812;	251,75;	0,0;	0,0
852,1983642578125;	261,75;	0,0;	0,0
852,2939453125;	265,0;	0,0;	0,0
852,3894653320312;	249,25;	0,0;	0,0
852,4849853515625;	278,0;	0,0;	0,0
852,5804443359375;	282,75;	0,0;	0,0
852,6758422851562;	268,25;	0,0;	0,0
852,7713012695312;	256,5;	0,0;	0,0
852,86669921875;	257,0;	0,0;	0,0
852,962158203125;	282,5;	0,0;	0,0
853,0574340820312;	262,75;	0,0;	0,0
853,15283203125;	263,5;	0,0;	0,0
853,2481689453125;	275,25;	0,0;	0,0
853,343505859375;	264,5;	0,0;	0,0
853,4386596679688;	268,25;	0,0;	0,0
853,5340576171875;	259,75;	0,0;	0,0
853,6292114257812;	279,75;	0,0;	0,0
853,7244262695312;	296,5;	0,0;	0,0
853,819580078125;	283,75;	0,0;	0,0
853,9147338867188;	362,5;	0,0;	0,0
854,0098876953125;	509,75;	0,0;	0,0
854,1050415039062;	786,25;	0,0;	0,0
854,2001342773438;	503,25;	0,0;	0,0
854,2952270507812;	280,75;	0,0;	0,0
854,3903198242188;	276,75;	0,0;	0,0
854,4852905273438;	269,25;	0,0;	0,0
854,580322265625;	272,0;	0,0;	0,0
854,6753540039062;	256,0;	0,0;	0,0
854,7703247070312;	245,75;	0,0;	0,0
854,865234375;	282,25;	0,0;	0,0
854,960205078125;	283,0;	0,0;	0,0
855,0551147460938;	250,0;	0,0;	0,0
855,1499633789062;	267,5;	0,0;	0,0
855,2448120117188;	263,25;	0,0;	0,0
855,3396606445312;	260,0;	0,0;	0,0
855,4344482421875;	281,5;	0,0;	0,0
855,5292358398438;	244,0;	0,0;	0,0
855,6240234375;	273,25;	0,0;	0,0
855,7188110351562;	248,5;	0,0;	0,0
855,8135375976562;	260,0;	0,0;	0,0
855,9082641601562;	239,75;	0,0;	0,0
856,0029296875;	291,5;	0,0;	0,0
856,0975952148438;	249,5;	0,0;	0,0
856,1921997070312;	260,25;	0,0;	0,0
856,286865234375;	275,0;	0,0;	0,0
856,3814086914062;	268,75;	0,0;	0,0
856,4760131835938;	288,25;	0,0;	0,0
856,570556640625;	287,75;	0,0;	0,0
856,6651000976562;	337,0;	0,0;	0,0
856,759521484375;	354,0;	0,0;	0,0
856,8540649414062;	318,25;	0,0;	0,0
856,948486328125;	288,5;	0,0;	0,0
857,04296875;	259,75;	0,0;	0,0
857,1373291015625;	283,0;	0,0;	0,0
857,2317504882812;	284,0;	0,0;	0,0
857,3261108398438;	257,5;	0,0;	0,0
857,4204711914062;	252,75;	0,0;	0,0
857,5147705078125;	290,75;	0,0;	0,0
857,609130859375;	267,5;	0,0;	0,0
857,703369140625;	262,5;	0,0;	0,0
857,797607421875;	250,75;	0,0;	0,0
857,891845703125;	268,75;	0,0;	0,0
857,986083984375;	259,25;	0,0;	0,0
858,0802612304688;	271,75;	0,0;	0,0
858,1744384765625;	277,25;	0,0;	0,0
858,2686157226562;	265,25;	0,0;	0,0
858,3627319335938;	272,25;	0,0;	0,0
858,4568481445312;	280,5;	0,0;	0,0
858,5509033203125;	261,75;	0,0;	0,0
858,6449584960938;	250,0;	0,0;	0,0
858,739013671875;	286,0;	0,0;	0,0
858,8330078125;	256,5;	0,0;	0,0
858,927001953125;	272,25;	0,0;	0,0
859,0209350585938;	291,25;	0,0;	0,0
859,1149291992188;	316,0;	0,0;	0,0
859,2088623046875;	338,5;	0,0;	0,0
859,302734375;	440,25;	0,0;	0,0
859,3966674804688;	437,5;	0,0;	0,0
859,4905395507812;	411,0;	0,0;	0,0
859,5843505859375;	332,0;	0,0;	0,0
859,6781616210938;	286,75;	0,0;	0,0
859,77197265625;	285,5;	0,0;	0,0
859,86572265625;	239,75;	0,0;	0,0
859,95947265625;	275,5;	0,0;	0,0
860,05322265625;	265,0;	0,0;	0,0
860,1469116210938;	277,75;	0,0;	0,0
860,2406005859375;	273,25;	0,0;	0,0
860,3342895507812;	269,75;	0,0;	0,0
860,4278564453125;	270,25;	0,0;	0,0
860,521484375;	271,0;	0,0;	0,0
860,6151123046875;	294,25;	0,0;	0,0
860,7086791992188;	255,5;	0,0;	0,0
860,8021240234375;	243,25;	0,0;	0,0
860,8956909179688;	268,5;	0,0;	0,0
860,9891357421875;	273,5;	0,0;	0,0
861,0827026367188;	312,5;	0,0;	0,0
861,1760864257812;	275,25;	0,0;	0,0
861,2695922851562;	262,0;	0,0;	0,0
861,3629760742188;	268,75;	0,0;	0,0
861,4563598632812;	285,25;	0,0;	0,0
861,5497436523438;	252,25;	0,0;	0,0
861,64306640625;	260,5;	0,0;	0,0
861,7363891601562;	274,5;	0,0;	0,0
861,8296508789062;	280,25;	0,0;	0,0
861,9229736328125;	270,0;	0,0;	0,0
862,0162353515625;	271,5;	0,0;	0,0
862,1094360351562;	267,25;	0,0;	0,0
862,20263671875;	275,75;	0,0;	0,0
862,2958374023438;	281,0;	0,0;	0,0
862,3890380859375;	304,0;	0,0;	0,0
862,482177734375;	324,25;	0,0;	0,0
862,5753173828125;	374,5;	0,0;	0,0
862,6683959960938;	397,25;	0,0;	0,0
862,761474609375;	521,0;	0,0;	0,0
862,8545532226562;	622,5;	0,0;	0,0
862,9475708007812;	585,0;	0,0;	0,0
863,0405883789062;	455,75;	0,0;	0,0
863,133544921875;	384,0;	0,0;	0,0
863,2265625;	370,0;	0,0;	0,0
863,3194580078125;	314,25;	0,0;	0,0
863,412353515625;	280,5;	0,0;	0,0
863,5052490234375;	288,75;	0,0;	0,0
863,59814453125;	268,5;	0,0;	0,0
863,6909790039062;	291,5;	0,0;	0,0
863,7838134765625;	263,0;	0,0;	0,0
863,8766479492188;	266,75;	0,0;	0,0
863,9694213867188;	269,25;	0,0;	0,0
864,0621948242188;	277,75;	0,0;	0,0
864,1549072265625;	286,75;	0,0;	0,0
864,2476806640625;	272,0;	0,0;	0,0
864,34033203125;	255,25;	0,0;	0,0
864,4330444335938;	257,5;	0,0;	0,0
864,5256958007812;	261,25;	0,0;	0,0
864,6182861328125;	251,25;	0,0;	0,0
864,7109375;	281,5;	0,0;	0,0
864,803466796875;	272,5;	0,0;	0,0
864,8960571289062;	259,75;	0,0;	0,0
864,988525390625;	283,5;	0,0;	0,0
865,0811157226562;	283,0;	0,0;	0,0
865,1735229492188;	272,25;	0,0;	0,0
865,2660522460938;	294,75;	0,0;	0,0
865,3584594726562;	290,25;	0,0;	0,0
865,4509887695312;	340,25;	0,0;	0,0
865,5432739257812;	353,0;	0,0;	0,0
865,6357421875;	350,0;	0,0;	0,0
865,72802734375;	327,75;	0,0;	0,0
865,8203125;	343,0;	0,0;	0,0
865,9127197265625;	350,5;	0,0;	0,0
866,0049438476562;	456,0;	0,0;	0,0
866,0972290039062;	588,0;	0,0;	0,0
866,189453125;	502,75;	0,0;	0,0
866,2816772460938;	339,5;	0,0;	0,0
866,3739013671875;	292,25;	0,0;	0,0
866,466064453125;	274,5;	0,0;	0,0
866,5582275390625;	287,5;	0,0;	0,0
866,6503295898438;	273,75;	0,0;	0,0
866,7424926757812;	268,75;	0,0;	0,0
866,8345336914062;	266,0;	0,0;	0,0
866,9266357421875;	288,25;	0,0;	0,0
867,0186767578125;	287,75;	0,0;	0,0
867,1107177734375;	293,25;	0,0;	0,0
867,2026977539062;	308,25;	0,0;	0,0
867,294677734375;	322,5;	0,0;	0,0
867,3865966796875;	332,5;	0,0;	0,0
867,478515625;	339,75;	0,0;	0,0
867,5704345703125;	411,0;	0,0;	0,0
867,662353515625;	515,5;	0,0;	0,0
867,7542114257812;	678,25;	0,0;	0,0
867,8460693359375;	1049,75;	0,0;	0,0
867,9378662109375;	1285,25;	0,0;	0,0
868,0296630859375;	1177,0;	0,0;	0,0
868,1213989257812;	929,75;	0,0;	0,0
868,2131958007812;	970,5;	0,0;	0,0
868,3048706054688;	1027,25;	0,0;	0,0
868,3965454101562;	785,5;	0,0;	0,0
868,48828125;	663,5;	0,0;	0,0
868,5799560546875;	608,75;	0,0;	0,0
868,6715698242188;	545,25;	0,0;	0,0
868,7631225585938;	525,5;	0,0;	0,0
868,8547973632812;	431,25;	0,0;	0,0
868,9462890625;	302,25;	0,0;	0,0
869,037841796875;	282,75;	0,0;	0,0
869,1293334960938;	292,5;	0,0;	0,0
869,220947265625;	253,75;	0,0;	0,0
869,3123168945312;	256,5;	0,0;	0,0
869,4038696289062;	285,0;	0,0;	0,0
869,4951782226562;	259,25;	0,0;	0,0
869,5867309570312;	281,25;	0,0;	0,0
869,6780395507812;	289,75;	0,0;	0,0
869,7693481445312;	288,25;	0,0;	0,0
869,8607177734375;	283,0;	0,0;	0,0
869,9520263671875;	283,0;	0,0;	0,0
870,0433349609375;	377,5;	0,0;	0,0
870,1345825195312;	450,75;	0,0;	0,0
870,225830078125;	497,0;	0,0;	0,0
870,3170776367188;	446,5;	0,0;	0,0
870,4082641601562;	363,5;	0,0;	0,0
870,4994506835938;	318,75;	0,0;	0,0
870,590576171875;	304,25;	0,0;	0,0
870,6817626953125;	299,0;	0,0;	0,0
870,7728271484375;	293,75;	0,0;	0,0
870,8639526367188;	360,25;	0,0;	0,0
870,9550170898438;	431,75;	0,0;	0,0
871,0460815429688;	545,5;	0,0;	0,0
871,1370849609375;	567,0;	0,0;	0,0
871,2280883789062;	413,25;	0,0;	0,0
871,319091796875;	328,5;	0,0;	0,0
871,4100341796875;	296,25;	0,0;	0,0
871,5009155273438;	311,25;	0,0;	0,0
871,5918579101562;	330,0;	0,0;	0,0
871,6828002929688;	374,0;	0,0;	0,0
871,7736206054688;	450,75;	0,0;	0,0
871,864501953125;	469,5;	0,0;	0,0
871,9552612304688;	358,0;	0,0;	0,0
872,0460815429688;	289,0;	0,0;	0,0
872,1369018554688;	262,0;	0,0;	0,0
872,2276000976562;	271,75;	0,0;	0,0
872,318359375;	275,75;	0,0;	0,0
872,4090576171875;	286,5;	0,0;	0,0
872,4996948242188;	256,0;	0,0;	0,0
872,5903930664062;	270,0;	0,0;	0,0
872,680908203125;	299,25;	0,0;	0,0
872,7716064453125;	317,75;	0,0;	0,0
872,8621826171875;	306,75;	0,0;	0,0
872,9527587890625;	292,0;	0,0;	0,0
873,0432739257812;	270,5;	0,0;	0,0
873,1338500976562;	269,5;	0,0;	0,0
873,2243041992188;	264,25;	0,0;	0,0
873,3148193359375;	254,75;	0,0;	0,0
873,4052124023438;	228,5;	0,0;	0,0
873,4957275390625;	247,75;	0,0;	0,0
873,5860595703125;	273,25;	0,0;	0,0
873,6764526367188;	264,5;	0,0;	0,0
873,766845703125;	243,25;	0,0;	0,0
873,857177734375;	261,25;	0,0;	0,0
873,9474487304688;	251,75;	0,0;	0,0
874,0377807617188;	267,0;	0,0;	0,0
874,1279907226562;	250,25;	0,0;	0,0
874,21826171875;	255,0;	0,0;	0,0
874,3084716796875;	259,0;	0,0;	0,0
874,3987426757812;	267,25;	0,0;	0,0
874,4888916015625;	247,0;	0,0;	0,0
874,5790405273438;	260,0;	0,0;	0,0
874,669189453125;	256,0;	0,0;	0,0
874,75927734375;	258,0;	0,0;	0,0
874,849365234375;	265,0;	0,0;	0,0
874,939453125;	260,5;	0,0;	0,0
875,0294799804688;	232,5;	0,0;	0,0
875,1195068359375;	236,5;	0,0;	0,0
875,20947265625;	258,5;	0,0;	0,0
875,2994995117188;	268,5;	0,0;	0,0
875,389404296875;	231,75;	0,0;	0,0
875,4793090820312;	263,25;	0,0;	0,0
875,5692749023438;	240,25;	0,0;	0,0
875,6591186523438;	280,75;	0,0;	0,0
875,7490234375;	257,25;	0,0;	0,0
875,8388061523438;	250,75;	0,0;	0,0
875,9286499023438;	251,5;	0,0;	0,0
876,0184326171875;	245,5;	0,0;	0,0
876,1082153320312;	253,75;	0,0;	0,0
876,197998046875;	249,0;	0,0;	0,0
876,2876586914062;	238,75;	0,0;	0,0
876,3773803710938;	259,75;	0,0;	0,0
876,4671020507812;	243,75;	0,0;	0,0
876,556640625;	241,75;	0,0;	0,0
876,6463012695312;	243,5;	0,0;	0,0
876,7359008789062;	240,75;	0,0;	0,0
876,8255615234375;	264,75;	0,0;	0,0
876,9150390625;	248,25;	0,0;	0,0
877,004638671875;	234,25;	0,0;	0,0
877,0941162109375;	248,25;	0,0;	0,0
877,1836547851562;	252,75;	0,0;	0,0
877,2730712890625;	248,75;	0,0;	0,0
877,3626098632812;	237,5;	0,0;	0,0
877,451904296875;	233,0;	0,0;	0,0
877,5413208007812;	259,0;	0,0;	0,0
877,6306762695312;	252,75;	0,0;	0,0
877,7200927734375;	250,75;	0,0;	0,0
877,8093872070312;	258,25;	0,0;	0,0
877,898681640625;	260,5;	0,0;	0,0
877,988037109375;	244,0;	0,0;	0,0
878,0772705078125;	251,75;	0,0;	0,0
878,16650390625;	232,25;	0,0;	0,0
878,2557373046875;	245,5;	0,0;	0,0
878,3449096679688;	258,75;	0,0;	0,0
878,43408203125;	264,0;	0,0;	0,0
878,5232543945312;	238,75;	0,0;	0,0
878,6123657226562;	230,5;	0,0;	0,0
878,7014770507812;	264,75;	0,0;	0,0
878,7905883789062;	235,75;	0,0;	0,0
878,8795776367188;	244,0;	0,0;	0,0
878,9686279296875;	244,25;	0,0;	0,0
879,0576782226562;	252,25;	0,0;	0,0
879,1466674804688;	266,25;	0,0;	0,0
879,235595703125;	236,25;	0,0;	0,0
879,3245239257812;	271,0;	0,0;	0,0
879,4134521484375;	271,0;	0,0;	0,0
879,5023193359375;	260,0;	0,0;	0,0
879,5911865234375;	258,5;	0,0;	0,0
879,6800537109375;	250,0;	0,0;	0,0
879,7688598632812;	271,5;	0,0;	0,0
879,8577270507812;	243,5;	0,0;	0,0
879,9464721679688;	251,0;	0,0;	0,0
880,0352783203125;	234,25;	0,0;	0,0
880,1239624023438;	239,0;	0,0;	0,0
880,212646484375;	247,25;	0,0;	0,0
880,3013305664062;	266,75;	0,0;	0,0
880,3899536132812;	251,5;	0,0;	0,0
880,4786376953125;	242,5;	0,0;	0,0
880,5671997070312;	256,5;	0,0;	0,0
880,6558837890625;	247,0;	0,0;	0,0
880,7444458007812;	250,75;	0,0;	0,0
880,8330078125;	233,25;	0,0;	0,0
880,9215087890625;	253,25;	0,0;	0,0
881,010009765625;	255,25;	0,0;	0,0
881,0985107421875;	240,5;	0,0;	0,0
881,18701171875;	234,75;	0,0;	0,0
881,2753295898438;	238,5;	0,0;	0,0
881,36376953125;	232,5;	0,0;	0,0
881,4521484375;	247,5;	0,0;	0,0
881,54052734375;	246,25;	0,0;	0,0
881,6288452148438;	271,75;	0,0;	0,0
881,7171630859375;	262,25;	0,0;	0,0
881,8054809570312;	259,75;	0,0;	0,0
881,8937377929688;	266,75;	0,0;	0,0
881,9819946289062;	289,0;	0,0;	0,0
882,0701904296875;	262,25;	0,0;	0,0
882,158447265625;	285,5;	0,0;	0,0
882,24658203125;	302,25;	0,0;	0,0
882,334716796875;	324,25;	0,0;	0,0
882,4228515625;	269,0;	0,0;	0,0
882,510986328125;	259,5;	0,0;	0,0
882,5990600585938;	249,25;	0,0;	0,0
882,6871337890625;	224,5;	0,0;	0,0
882,7752075195312;	227,0;	0,0;	0,0
882,8632202148438;	240,5;	0,0;	0,0
882,951171875;	263,25;	0,0;	0,0
883,0391845703125;	241,0;	0,0;	0,0
883,1271362304688;	249,25;	0,0;	0,0
883,2150268554688;	233,0;	0,0;	0,0
883,3029174804688;	261,75;	0,0;	0,0
883,390869140625;	249,5;	0,0;	0,0
883,4786987304688;	250,0;	0,0;	0,0
883,5665283203125;	263,5;	0,0;	0,0
883,6543579101562;	274,0;	0,0;	0,0
883,7421264648438;	257,25;	0,0;	0,0
883,829833984375;	258,75;	0,0;	0,0
883,9176025390625;	230,5;	0,0;	0,0
884,0053100585938;	257,25;	0,0;	0,0
884,093017578125;	242,5;	0,0;	0,0
884,1806640625;	277,5;	0,0;	0,0
884,268310546875;	246,75;	0,0;	0,0
884,3558959960938;	245,25;	0,0;	0,0
884,4435424804688;	261,0;	0,0;	0,0
884,5310668945312;	247,75;	0,0;	0,0
884,6187133789062;	257,25;	0,0;	0,0
884,7061767578125;	253,25;	0,0;	0,0
884,7937622070312;	230,0;	0,0;	0,0
884,8811645507812;	234,0;	0,0;	0,0
884,9686889648438;	267,75;	0,0;	0,0
885,0560302734375;	223,0;	0,0;	0,0
885,1434936523438;	239,5;	0,0;	0,0
885,2308349609375;	234,0;	0,0;	0,0
885,3182373046875;	254,0;	0,0;	0,0
885,4055786132812;	250,75;	0,0;	0,0
885,4928588867188;	267,5;	0,0;	0,0
885,5801391601562;	256,25;	0,0;	0,0
885,6674194335938;	235,5;	0,0;	0,0
885,7546997070312;	254,5;	0,0;	0,0
885,8419189453125;	241,25;	0,0;	0,0
885,9291381835938;	257,75;	0,0;	0,0
886,016357421875;	246,5;	0,0;	0,0
886,103515625;	235,75;	0,0;	0,0
886,1906127929688;	250,25;	0,0;	0,0
886,2777709960938;	259,0;	0,0;	0,0
886,3648071289062;	254,25;	0,0;	0,0
886,4518432617188;	256,75;	0,0;	0,0
886,5389404296875;	251,75;	0,0;	0,0
886,6259765625;	279,5;	0,0;	0,0
886,7129516601562;	259,0;	0,0;	0,0
886,7999267578125;	259,5;	0,0;	0,0
886,8869018554688;	250,25;	0,0;	0,0
886,9737548828125;	261,75;	0,0;	0,0
887,0606689453125;	226,25;	0,0;	0,0
887,1475830078125;	264,0;	0,0;	0,0
887,2344360351562;	247,75;	0,0;	0,0
887,3212890625;	248,5;	0,0;	0,0
887,4080810546875;	245,25;	0,0;	0,0
887,4948120117188;	251,5;	0,0;	0,0
887,5816650390625;	249,5;	0,0;	0,0
887,6683959960938;	239,75;	0,0;	0,0
887,7550659179688;	247,75;	0,0;	0,0
887,841796875;	234,5;	0,0;	0,0
887,9284057617188;	279,75;	0,0;	0,0
888,0150756835938;	238,25;	0,0;	0,0
888,1016235351562;	254,25;	0,0;	0,0
888,1883544921875;	249,25;	0,0;	0,0
888,2747802734375;	234,25;	0,0;	0,0
888,3614501953125;	268,25;	0,0;	0,0
888,4478759765625;	254,0;	0,0;	0,0
888,534423828125;	255,0;	0,0;	0,0
888,620849609375;	246,0;	0,0;	0,0
888,7073974609375;	247,5;	0,0;	0,0
888,7937622070312;	239,0;	0,0;	0,0
888,8801879882812;	251,0;	0,0;	0,0
888,966552734375;	245,0;	0,0;	0,0
889,0529174804688;	250,5;	0,0;	0,0
889,1392822265625;	238,75;	0,0;	0,0
889,2255859375;	239,0;	0,0;	0,0
889,3118896484375;	239,5;	0,0;	0,0
889,398193359375;	245,5;	0,0;	0,0
889,484375;	240,75;	0,0;	0,0
889,5706787109375;	240,25;	0,0;	0,0
889,6568603515625;	256,5;	0,0;	0,0
889,7430419921875;	237,75;	0,0;	0,0
889,8291625976562;	266,75;	0,0;	0,0
889,9153442382812;	226,25;	0,0;	0,0
890,0014038085938;	267,0;	0,0;	0,0
890,0874633789062;	242,25;	0,0;	0,0
890,173583984375;	265,75;	0,0;	0,0
890,2595825195312;	244,75;	0,0;	0,0
890,3456420898438;	248,5;	0,0;	0,0
890,4315795898438;	229,5;	0,0;	0,0
890,5175170898438;	258,5;	0,0;	0,0
890,6034545898438;	223,25;	0,0;	0,0
890,689453125;	284,75;	0,0;	0,0
890,7753295898438;	236,75;	0,0;	0,0
890,8611450195312;	237,25;	0,0;	0,0
890,947021484375;	253,25;	0,0;	0,0
891,0328369140625;	237,0;	0,0;	0,0
891,1187133789062;	244,75;	0,0;	0,0
891,2044067382812;	249,75;	0,0;	0,0
891,2902221679688;	236,5;	0,0;	0,0
891,3759155273438;	233,0;	0,0;	0,0
891,4616088867188;	270,0;	0,0;	0,0
891,54736328125;	235,75;	0,0;	0,0
891,6329345703125;	255,75;	0,0;	0,0
891,7186279296875;	261,25;	0,0;	0,0
891,80419921875;	265,0;	0,0;	0,0
891,8898315429688;	236,0;	0,0;	0,0
891,975341796875;	264,25;	0,0;	0,0
892,0609130859375;	248,25;	0,0;	0,0
892,1464233398438;	274,0;	0,0;	0,0
892,23193359375;	240,0;	0,0;	0,0
892,3173828125;	269,5;	0,0;	0,0
892,4028930664062;	236,5;	0,0;	0,0
892,4882202148438;	255,0;	0,0;	0,0
892,5736083984375;	252,5;	0,0;	0,0
892,6589965820312;	249,5;	0,0;	0,0
892,744384765625;	263,75;	0,0;	0,0
892,8297119140625;	257,25;	0,0;	0,0
892,9150390625;	253,0;	0,0;	0,0
893,0003051757812;	256,25;	0,0;	0,0
893,0855712890625;	246,25;	0,0;	0,0
893,1708374023438;	257,25;	0,0;	0,0
893,2559814453125;	246,0;	0,0;	0,0
893,3412475585938;	240,0;	0,0;	0,0
893,4263916015625;	259,5;	0,0;	0,0
893,5115356445312;	236,0;	0,0;	0,0
893,5966186523438;	238,5;	0,0;	0,0
893,6817016601562;	234,0;	0,0;	0,0
893,7667846679688;	249,0;	0,0;	0,0
893,8518676757812;	241,75;	0,0;	0,0
893,9368896484375;	241,5;	0,0;	0,0
894,0218505859375;	237,75;	0,0;	0,0
894,1068725585938;	249,5;	0,0;	0,0
894,1918334960938;	253,0;	0,0;	0,0
894,2767944335938;	266,25;	0,0;	0,0
894,3616333007812;	253,75;	0,0;	0,0
894,446533203125;	234,75;	0,0;	0,0
894,5313720703125;	247,75;	0,0;	0,0
894,6162109375;	236,0;	0,0;	0,0
894,7010498046875;	261,0;	0,0;	0,0
894,7858276367188;	232,25;	0,0;	0,0
894,87060546875;	246,25;	0,0;	0,0
894,9553833007812;	228,75;	0,0;	0,0
895,0401000976562;	253,5;	0,0;	0,0
895,1248168945312;	221,5;	0,0;	0,0
895,20947265625;	227,5;	0,0;	0,0
895,2940063476562;	249,0;	0,0;	0,0
895,3787231445312;	249,75;	0,0;	0,0
895,4632568359375;	245,25;	0,0;	0,0
895,5479125976562;	253,25;	0,0;	0,0
895,6324462890625;	252,75;	0,0;	0,0
895,7169799804688;	255,5;	0,0;	0,0
895,8013916015625;	257,25;	0,0;	0,0
895,885986328125;	241,0;	0,0;	0,0
895,9703369140625;	257,5;	0,0;	0,0
896,0548706054688;	232,25;	0,0;	0,0
896,1392211914062;	244,25;	0,0;	0,0
896,2236328125;	251,5;	0,0;	0,0
896,3079833984375;	226,0;	0,0;	0,0
896,392333984375;	239,25;	0,0;	0,0
896,4766235351562;	253,0;	0,0;	0,0
896,5609130859375;	236,0;	0,0;	0,0
896,6452026367188;	254,25;	0,0;	0,0
896,7294921875;	248,5;	0,0;	0,0
896,8136596679688;	250,0;	0,0;	0,0
896,8978881835938;	237,0;	0,0;	0,0
896,9819946289062;	248,0;	0,0;	0,0
897,0662231445312;	265,5;	0,0;	0,0
897,1503295898438;	235,25;	0,0;	0,0
897,234375;	236,5;	0,0;	0,0
897,3184814453125;	244,0;	0,0;	0,0
897,4025268554688;	230,5;	0,0;	0,0
897,486572265625;	253,75;	0,0;	0,0
897,570556640625;	251,0;	0,0;	0,0
897,6546020507812;	249,75;	0,0;	0,0
897,738525390625;	238,0;	0,0;	0,0
897,8224487304688;	221,75;	0,0;	0,0
897,9063720703125;	230,75;	0,0;	0,0
897,9902954101562;	244,5;	0,0;	0,0
898,0741577148438;	246,75;	0,0;	0,0
898,157958984375;	247,5;	0,0;	0,0
898,2417602539062;	251,75;	0,0;	0,0
898,3255615234375;	267,25;	0,0;	0,0
898,4093627929688;	255,75;	0,0;	0,0
898,4931030273438;	261,75;	0,0;	0,0
898,5768432617188;	254,25;	0,0;	0,0
898,6605834960938;	229,75;	0,0;	0,0
898,7442016601562;	235,5;	0,0;	0,0
898,827880859375;	233,25;	0,0;	0,0
898,9114379882812;	248,25;	0,0;	0,0
898,9950561523438;	238,5;	0,0;	0,0
899,07861328125;	250,25;	0,0;	0,0
899,1622314453125;	237,25;	0,0;	0,0
899,2456665039062;	240,0;	0,0;	0,0
899,3292846679688;	241,5;	0,0;	0,0
899,4127197265625;	245,75;	0,0;	0,0
899,4962158203125;	235,5;	0,0;	0,0
899,57958984375;	234,0;	0,0;	0,0
899,6630859375;	269,0;	0,0;	0,0
899,7463989257812;	269,75;	0,0;	0,0
899,8297729492188;	289,25;	0,0;	0,0
899,9130859375;	277,75;	0,0;	0,0
899,9963989257812;	257,5;	0,0;	0,0
900,0797119140625;	253,5;	0,0;	0,0
900,1629638671875;	243,25;	0,0;	0,0
900,2462158203125;	242,5;	0,0;	0,0
900,3294677734375;	261,75;	0,0;	0,0
900,4127197265625;	248,75;	0,0;	0,0
900,495849609375;	221,75;	0,0;	0,0
900,5790405273438;	235,5;	0,0;	0,0
900,662109375;	225,75;	0,0;	0,0
900,7451782226562;	236,25;	0,0;	0,0
900,8283081054688;	221,75;	0,0;	0,0
900,911376953125;	227,75;	0,0;	0,0
900,9944458007812;	261,75;	0,0;	0,0
901,0774536132812;	253,25;	0,0;	0,0
901,1603393554688;	265,0;	0,0;	0,0
901,2433471679688;	250,25;	0,0;	0,0
901,3262939453125;	250,25;	0,0;	0,0
901,4091796875;	241,25;	0,0;	0,0
901,4921264648438;	226,0;	0,0;	0,0
901,574951171875;	235,5;	0,0;	0,0
901,6578369140625;	244,5;	0,0;	0,0
901,7406616210938;	240,0;	0,0;	0,0
901,8234252929688;	245,5;	0,0;	0,0
901,9061889648438;	266,0;	0,0;	0,0
901,9889526367188;	243,25;	0,0;	0,0
902,0715942382812;	248,75;	0,0;	0,0
902,1543579101562;	246,5;	0,0;	0,0
902,237060546875;	278,25;	0,0;	0,0
902,3196411132812;	246,5;	0,0;	0,0
902,40234375;	248,5;	0,0;	0,0
902,48486328125;	244,75;	0,0;	0,0
902,5674438476562;	269,25;	0,0;	0,0
902,6499633789062;	258,5;	0,0;	0,0
902,7325439453125;	278,75;	0,0;	0,0
902,8150024414062;	274,25;	0,0;	0,0
902,8975219726562;	282,25;	0,0;	0,0
902,97998046875;	251,0;	0,0;	0,0
903,0624389648438;	278,25;	0,0;	0,0
903,144775390625;	253,75;	0,0;	0,0
903,227294921875;	245,5;	0,0;	0,0
903,3095703125;	263,5;	0,0;	0,0
903,391845703125;	248,0;	0,0;	0,0
903,4742431640625;	269,0;	0,0;	0,0
903,5565185546875;	278,75;	0,0;	0,0
903,6387939453125;	256,75;	0,0;	0,0
903,7210083007812;	232,25;	0,0;	0,0
903,80322265625;	259,5;	0,0;	0,0
903,8854370117188;	242,5;	0,0;	0,0
903,9675903320312;	259,25;	0,0;	0,0
904,0497436523438;	266,75;	0,0;	0,0
904,1318969726562;	277,5;	0,0;	0,0
904,2139892578125;	291,75;	0,0;	0,0
904,2960205078125;	322,25;	0,0;	0,0
904,3780517578125;	334,0;	0,0;	0,0
904,4600830078125;	395,75;	0,0;	0,0
904,5421142578125;	391,75;	0,0;	0,0
904,6240844726562;	362,75;	0,0;	0,0
904,7060546875;	332,0;	0,0;	0,0
904,7879638671875;	360,0;	0,0;	0,0
904,869873046875;	347,75;	0,0;	0,0
904,9517211914062;	361,25;	0,0;	0,0
905,0336303710938;	302,25;	0,0;	0,0
905,115478515625;	264,0;	0,0;	0,0
905,197265625;	269,0;	0,0;	0,0
905,279052734375;	247,25;	0,0;	0,0
905,36083984375;	280,5;	0,0;	0,0
905,4425659179688;	246,0;	0,0;	0,0
905,5242919921875;	257,5;	0,0;	0,0
905,6060180664062;	264,5;	0,0;	0,0
905,6876220703125;	261,5;	0,0;	0,0
905,769287109375;	270,75;	0,0;	0,0
905,8508911132812;	292,5;	0,0;	0,0
905,9324951171875;	298,75;	0,0;	0,0
906,0140380859375;	318,25;	0,0;	0,0
906,0956420898438;	315,25;	0,0;	0,0
906,1771240234375;	296,25;	0,0;	0,0
906,2586669921875;	299,75;	0,0;	0,0
906,3400268554688;	287,25;	0,0;	0,0
906,4215698242188;	279,0;	0,0;	0,0
906,5029296875;	283,0;	0,0;	0,0
906,5844116210938;	268,0;	0,0;	0,0
906,6657104492188;	245,75;	0,0;	0,0
906,7471313476562;	283,5;	0,0;	0,0
906,828369140625;	235,5;	0,0;	0,0
906,90966796875;	259,0;	0,0;	0,0
906,990966796875;	241,5;	0,0;	0,0
907,0722045898438;	256,75;	0,0;	0,0
907,1534423828125;	245,25;	0,0;	0,0
907,2346801757812;	263,75;	0,0;	0,0
907,3158569335938;	251,0;	0,0;	0,0
907,3970336914062;	244,75;	0,0;	0,0
907,4781494140625;	233,25;	0,0;	0,0
907,559326171875;	242,5;	0,0;	0,0
907,640380859375;	269,75;	0,0;	0,0
907,721435546875;	236,5;	0,0;	0,0
907,802490234375;	242,25;	0,0;	0,0
907,8834838867188;	248,0;	0,0;	0,0
907,9644775390625;	260,25;	0,0;	0,0
908,0454711914062;	247,25;	0,0;	0,0
908,1264038085938;	234,75;	0,0;	0,0
908,2073364257812;	260,5;	0,0;	0,0
908,2882080078125;	231,0;	0,0;	0,0
908,3690795898438;	260,5;	0,0;	0,0
908,449951171875;	252,0;	0,0;	0,0
908,53076171875;	244,25;	0,0;	0,0
908,6115112304688;	266,25;	0,0;	0,0
908,6923217773438;	253,0;	0,0;	0,0
908,7730712890625;	262,75;	0,0;	0,0
908,8538208007812;	249,5;	0,0;	0,0
908,9345092773438;	245,5;	0,0;	0,0
909,0151977539062;	241,5;	0,0;	0,0
909,0958251953125;	260,0;	0,0;	0,0
909,1764526367188;	251,25;	0,0;	0,0
909,257080078125;	274,25;	0,0;	0,0
909,337646484375;	271,25;	0,0;	0,0
909,418212890625;	257,75;	0,0;	0,0
909,4987182617188;	280,0;	0,0;	0,0
909,5792236328125;	238,0;	0,0;	0,0
909,65966796875;	236,0;	0,0;	0,0
909,7401733398438;	234,0;	0,0;	0,0
909,820556640625;	250,75;	0,0;	0,0
909,9010009765625;	243,0;	0,0;	0,0
909,9813842773438;	244,0;	0,0;	0,0
910,061767578125;	241,5;	0,0;	0,0
910,1420288085938;	242,5;	0,0;	0,0
910,222412109375;	246,25;	0,0;	0,0
910,3026733398438;	241,5;	0,0;	0,0
910,3829345703125;	254,0;	0,0;	0,0
910,4631958007812;	235,75;	0,0;	0,0
910,5433959960938;	252,25;	0,0;	0,0
910,6235961914062;	237,0;	0,0;	0,0
910,7037353515625;	251,25;	0,0;	0,0
910,783935546875;	239,5;	0,0;	0,0
910,864013671875;	241,25;	0,0;	0,0
910,944091796875;	254,0;	0,0;	0,0
911,024169921875;	245,0;	0,0;	0,0
911,104248046875;	260,5;	0,0;	0,0
911,1842651367188;	249,25;	0,0;	0,0
911,2642822265625;	246,5;	0,0;	0,0
911,3441772460938;	252,5;	0,0;	0,0
911,4241943359375;	259,0;	0,0;	0,0
911,5040893554688;	249,75;	0,0;	0,0
911,5840454101562;	229,0;	0,0;	0,0
911,6638793945312;	239,75;	0,0;	0,0
911,7437133789062;	243,75;	0,0;	0,0
911,8235473632812;	248,5;	0,0;	0,0
911,9033813476562;	257,25;	0,0;	0,0
911,983154296875;	233,5;	0,0;	0,0
912,0629272460938;	221,75;	0,0;	0,0
912,1426391601562;	246,25;	0,0;	0,0
912,2223510742188;	232,25;	0,0;	0,0
912,302001953125;	235,0;	0,0;	0,0
912,3817138671875;	235,75;	0,0;	0,0
912,4613037109375;	234,25;	0,0;	0,0
912,5409545898438;	232,0;	0,0;	0,0
912,6205444335938;	238,5;	0,0;	0,0
912,7000732421875;	278,5;	0,0;	0,0
912,7796630859375;	257,25;	0,0;	0,0
912,8590698242188;	231,0;	0,0;	0,0
912,9385986328125;	235,5;	0,0;	0,0
913,0181274414062;	258,25;	0,0;	0,0
913,0974731445312;	241,75;	0,0;	0,0
913,1769409179688;	239,5;	0,0;	0,0
913,2562866210938;	243,5;	0,0;	0,0
913,335693359375;	256,25;	0,0;	0,0
913,4149780273438;	238,0;	0,0;	0,0
913,494384765625;	230,75;	0,0;	0,0
913,5735473632812;	249,25;	0,0;	0,0
913,6528930664062;	240,25;	0,0;	0,0
913,7321166992188;	234,5;	0,0;	0,0
913,811279296875;	243,5;	0,0;	0,0
913,8905639648438;	224,75;	0,0;	0,0
913,9696655273438;	243,0;	0,0;	0,0
914,048828125;	237,0;	0,0;	0,0
914,1279296875;	230,25;	0,0;	0,0
914,20703125;	237,75;	0,0;	0,0
914,2861328125;	255,75;	0,0;	0,0
914,3651733398438;	258,5;	0,0;	0,0
914,4441528320312;	223,0;	0,0;	0,0
914,523193359375;	260,5;	0,0;	0,0
914,6021728515625;	222,25;	0,0;	0,0
914,68115234375;	227,75;	0,0;	0,0
914,7600708007812;	250,75;	0,0;	0,0
914,8389282226562;	236,0;	0,0;	0,0
914,9178466796875;	251,75;	0,0;	0,0
914,9967041015625;	251,0;	0,0;	0,0
915,0755004882812;	222,25;	0,0;	0,0
915,1543579101562;	218,25;	0,0;	0,0
915,2330932617188;	245,5;	0,0;	0,0
915,3118896484375;	224,75;	0,0;	0,0
915,3905639648438;	230,5;	0,0;	0,0
915,4692993164062;	230,5;	0,0;	0,0
915,5479736328125;	252,0;	0,0;	0,0
915,6266479492188;	244,25;	0,0;	0,0
915,7052612304688;	231,25;	0,0;	0,0
915,7838745117188;	230,25;	0,0;	0,0
915,8624877929688;	237,25;	0,0;	0,0
915,9409790039062;	243,0;	0,0;	0,0
916,01953125;	237,0;	0,0;	0,0
916,0980834960938;	243,0;	0,0;	0,0
916,1765747070312;	233,0;	0,0;	0,0
916,2550048828125;	217,5;	0,0;	0,0
916,3334350585938;	247,0;	0,0;	0,0
916,411865234375;	246,0;	0,0;	0,0
916,4901733398438;	242,5;	0,0;	0,0
916,568603515625;	251,5;	0,0;	0,0
916,6469116210938;	249,75;	0,0;	0,0
916,7252807617188;	238,0;	0,0;	0,0
916,803466796875;	262,5;	0,0;	0,0
916,8818359375;	254,25;	0,0;	0,0
916,9600219726562;	240,25;	0,0;	0,0
917,0382690429688;	245,25;	0,0;	0,0
917,1163940429688;	232,0;	0,0;	0,0
917,1946411132812;	223,75;	0,0;	0,0
917,272705078125;	231,0;	0,0;	0,0
917,350830078125;	242,0;	0,0;	0,0
917,428955078125;	250,0;	0,0;	0,0
917,507080078125;	234,5;	0,0;	0,0
917,5850830078125;	239,75;	0,0;	0,0
917,6630859375;	228,5;	0,0;	0,0
917,7410888671875;	255,5;	0,0;	0,0
917,819091796875;	251,5;	0,0;	0,0
917,8970336914062;	226,75;	0,0;	0,0
917,9749145507812;	260,25;	0,0;	0,0
918,0528564453125;	244,75;	0,0;	0,0
918,1307373046875;	240,75;	0,0;	0,0
918,2085571289062;	232,75;	0,0;	0,0
918,286376953125;	236,25;	0,0;	0,0
918,3641357421875;	233,0;	0,0;	0,0
918,4419555664062;	258,25;	0,0;	0,0
918,5197143554688;	247,75;	0,0;	0,0
918,597412109375;	233,25;	0,0;	0,0
918,6751098632812;	240,5;	0,0;	0,0
918,7528076171875;	216,0;	0,0;	0,0
918,8304443359375;	231,5;	0,0;	0,0
918,9080810546875;	256,25;	0,0;	0,0
918,9856567382812;	227,5;	0,0;	0,0
919,0632934570312;	230,75;	0,0;	0,0
919,1408081054688;	240,0;	0,0;	0,0
919,2183227539062;	239,25;	0,0;	0,0
919,2958374023438;	238,0;	0,0;	0,0
919,373291015625;	229,25;	0,0;	0,0
919,4507446289062;	236,75;	0,0;	0,0
919,5281982421875;	221,5;	0,0;	0,0
919,6056518554688;	219,5;	0,0;	0,0
919,6830444335938;	228,0;	0,0;	0,0
919,7603759765625;	229,5;	0,0;	0,0
919,837646484375;	247,75;	0,0;	0,0
919,9149780273438;	243,25;	0,0;	0,0
919,9921875;	236,25;	0,0;	0,0
920,0695190429688;	225,0;	0,0;	0,0
920,1466674804688;	240,25;	0,0;	0,0
920,2239990234375;	247,25;	0,0;	0,0
920,3010864257812;	264,5;	0,0;	0,0
920,3783569335938;	230,0;	0,0;	0,0
920,4553833007812;	247,0;	0,0;	0,0
920,5325927734375;	234,0;	0,0;	0,0
920,609619140625;	246,0;	0,0;	0,0
920,6866455078125;	243,25;	0,0;	0,0
920,763671875;	244,5;	0,0;	0,0
920,8406982421875;	225,5;	0,0;	0,0
920,9176635742188;	247,0;	0,0;	0,0
920,99462890625;	255,0;	0,0;	0,0
921,0715942382812;	241,5;	0,0;	0,0
921,1485595703125;	242,25;	0,0;	0,0
921,2254028320312;	236,25;	0,0;	0,0
921,30224609375;	238,0;	0,0;	0,0
921,3790893554688;	239,0;	0,0;	0,0
921,4559326171875;	237,75;	0,0;	0,0
921,53271484375;	233,5;	0,0;	0,0
921,6094970703125;	231,5;	0,0;	0,0
921,6862182617188;	215,0;	0,0;	0,0
921,7628784179688;	242,0;	0,0;	0,0
921,839599609375;	243,75;	0,0;	0,0
921,9163208007812;	213,75;	0,0;	0,0
921,992919921875;	218,25;	0,0;	0,0
922,0695190429688;	220,5;	0,0;	0,0
922,1461181640625;	232,5;	0,0;	0,0
922,2227172851562;	228,25;	0,0;	0,0
922,2992553710938;	241,75;	0,0;	0,0
922,375732421875;	238,5;	0,0;	0,0
922,4522094726562;	210,25;	0,0;	0,0
922,5286865234375;	249,25;	0,0;	0,0
922,6051025390625;	237,5;	0,0;	0,0
922,6815795898438;	226,25;	0,0;	0,0
922,7579345703125;	220,75;	0,0;	0,0
922,8342895507812;	241,5;	0,0;	0,0
922,9107055664062;	221,5;	0,0;	0,0
922,9869995117188;	221,25;	0,0;	0,0
923,063232421875;	236,5;	0,0;	0,0
923,1394653320312;	240,25;	0,0;	0,0
923,2158203125;	239,25;	0,0;	0,0
923,2919311523438;	226,25;	0,0;	0,0
923,3682250976562;	233,0;	0,0;	0,0
923,4442749023438;	241,25;	0,0;	0,0
923,5205688476562;	233,5;	0,0;	0,0
923,5966186523438;	237,0;	0,0;	0,0
923,6727294921875;	246,5;	0,0;	0,0
923,748779296875;	242,5;	0,0;	0,0
923,8248291015625;	243,5;	0,0;	0,0
923,9008178710938;	234,75;	0,0;	0,0
923,976806640625;	221,5;	0,0;	0,0
924,0527954101562;	238,75;	0,0;	0,0
924,128662109375;	228,75;	0,0;	0,0
924,2046508789062;	234,25;	0,0;	0,0
924,2805786132812;	246,75;	0,0;	0,0
924,3564453125;	220,75;	0,0;	0,0
924,4322509765625;	221,25;	0,0;	0,0
924,5081176757812;	251,75;	0,0;	0,0
924,5838623046875;	221,0;	0,0;	0,0
924,65966796875;	247,25;	0,0;	0,0
924,7353515625;	240,75;	0,0;	0,0
924,8111572265625;	249,0;	0,0;	0,0
924,8868408203125;	249,75;	0,0;	0,0
924,9624633789062;	246,0;	0,0;	0,0
925,0381469726562;	246,5;	0,0;	0,0
925,11376953125;	222,75;	0,0;	0,0
925,1893920898438;	239,0;	0,0;	0,0
925,2649536132812;	248,75;	0,0;	0,0
925,3404541015625;	256,0;	0,0;	0,0
925,416015625;	244,75;	0,0;	0,0
925,4915161132812;	237,25;	0,0;	0,0
925,5669555664062;	268,5;	0,0;	0,0
925,6423950195312;	277,75;	0,0;	0,0
925,7178955078125;	245,5;	0,0;	0,0
925,793212890625;	275,75;	0,0;	0,0
925,8685913085938;	277,0;	0,0;	0,0
925,9439697265625;	292,75;	0,0;	0,0
926,0193481445312;	316,75;	0,0;	0,0
926,0946044921875;	321,75;	0,0;	0,0
926,1698608398438;	350,75;	0,0;	0,0
926,2451171875;	334,0;	0,0;	0,0
926,3203735351562;	373,75;	0,0;	0,0
926,3955078125;	392,75;	0,0;	0,0
926,470703125;	377,75;	0,0;	0,0
926,5458374023438;	349,25;	0,0;	0,0
926,6209716796875;	0,0;	0,0;	0,0
