0.0	1.0
Integration time [ms]:	1.05
Averaging Nr. [scans]:1
Smoothing Nr. [pixels]:0
Data measured with spectrometer [name]:b'1703276U8'
Wave	;Sample	;Dark	;Reference	;Scope	
[nm]	;[counts]	;[counts]	;[counts]	
 
400,41888427734375;	256,25;	0,0;	0,0
400,4754333496094;	268,25;	0,0;	0,0
400,5319519042969;	596,0;	0,0;	0,0
400,5885009765625;	928,0;	0,0;	0,0
400,6449890136719;	399,25;	0,0;	0,0
400,7015075683594;	320,5;	0,0;	0,0
400,75799560546875;	284,5;	0,0;	0,0
400,8144836425781;	255,5;	0,0;	0,0
400,8709716796875;	255,5;	0,0;	0,0
400,92742919921875;	275,0;	0,0;	0,0
400,98388671875;	294,75;	0,0;	0,0
401,04034423828125;	345,75;	0,0;	0,0
401,09674072265625;	258,25;	0,0;	0,0
401,1531677246094;	253,75;	0,0;	0,0
401,2095947265625;	260,0;	0,0;	0,0
401,2659912109375;	241,25;	0,0;	0,0
401,3223876953125;	236,25;	0,0;	0,0
401,3787841796875;	247,5;	0,0;	0,0
401,4351806640625;	295,75;	0,0;	0,0
401,4915466308594;	350,5;	0,0;	0,0
401,54791259765625;	310,0;	0,0;	0,0
401,604248046875;	246,5;	0,0;	0,0
401,66058349609375;	243,75;	0,0;	0,0
401,7169189453125;	274,75;	0,0;	0,0
401,77325439453125;	307,25;	0,0;	0,0
401,8295593261719;	292,5;	0,0;	0,0
401,8858642578125;	257,75;	0,0;	0,0
401,942138671875;	244,25;	0,0;	0,0
401,9984436035156;	242,25;	0,0;	0,0
402,0547180175781;	275,0;	0,0;	0,0
402,1109619140625;	248,75;	0,0;	0,0
402,1672058105469;	279,25;	0,0;	0,0
402,22344970703125;	388,5;	0,0;	0,0
402,2796936035156;	339,5;	0,0;	0,0
402,3359375;	266,5;	0,0;	0,0
402,39215087890625;	247,75;	0,0;	0,0
402,44830322265625;	278,0;	0,0;	0,0
402,5045166015625;	295,75;	0,0;	0,0
402,5606994628906;	278,25;	0,0;	0,0
402,6168518066406;	269,25;	0,0;	0,0
402,6730041503906;	252,25;	0,0;	0,0
402,7291564941406;	255,0;	0,0;	0,0
402,7853088378906;	230,25;	0,0;	0,0
402,8414611816406;	275,5;	0,0;	0,0
402,8975830078125;	284,5;	0,0;	0,0
402,9537048339844;	253,0;	0,0;	0,0
403,0097961425781;	338,0;	0,0;	0,0
403,0658874511719;	498,5;	0,0;	0,0
403,1219787597656;	960,75;	0,0;	0,0
403,1780700683594;	529,75;	0,0;	0,0
403,234130859375;	353,0;	0,0;	0,0
403,2901916503906;	445,0;	0,0;	0,0
403,34625244140625;	716,25;	0,0;	0,0
403,40228271484375;	537,75;	0,0;	0,0
403,45831298828125;	458,25;	0,0;	0,0
403,51434326171875;	592,5;	0,0;	0,0
403,5703430175781;	301,0;	0,0;	0,0
403,6263122558594;	290,5;	0,0;	0,0
403,68231201171875;	254,25;	0,0;	0,0
403,7383117675781;	278,5;	0,0;	0,0
403,79425048828125;	253,25;	0,0;	0,0
403,8501892089844;	248,5;	0,0;	0,0
403,9061584472656;	272,25;	0,0;	0,0
403,96209716796875;	258,5;	0,0;	0,0
404,0180358886719;	263,75;	0,0;	0,0
404,0739440917969;	271,0;	0,0;	0,0
404,1298828125;	305,25;	0,0;	0,0
404,1857604980469;	370,5;	0,0;	0,0
404,24163818359375;	300,25;	0,0;	0,0
404,2975158691406;	297,75;	0,0;	0,0
404,3533935546875;	331,0;	0,0;	0,0
404,4092712402344;	430,0;	0,0;	0,0
404,4651184082031;	715,25;	0,0;	0,0
404,5209655761719;	951,0;	0,0;	0,0
404,5768127441406;	2230,25;	0,0;	0,0
404,6325988769531;	4900,0;	0,0;	0,0
404,68841552734375;	2060,5;	0,0;	0,0
404,7442321777344;	503,0;	0,0;	0,0
404,8000183105469;	433,0;	0,0;	0,0
404,8558349609375;	297,0;	0,0;	0,0
404,9115905761719;	301,0;	0,0;	0,0
404,96734619140625;	293,25;	0,0;	0,0
405,0231018066406;	285,0;	0,0;	0,0
405,078857421875;	260,0;	0,0;	0,0
405,1345520019531;	271,0;	0,0;	0,0
405,1902770996094;	269,0;	0,0;	0,0
405,2460021972656;	299,5;	0,0;	0,0
405,30169677734375;	293,5;	0,0;	0,0
405,3573913574219;	277,0;	0,0;	0,0
405,4130859375;	277,5;	0,0;	0,0
405,4687805175781;	288,5;	0,0;	0,0
405,5244445800781;	335,25;	0,0;	0,0
405,580078125;	336,25;	0,0;	0,0
405,6357116699219;	283,5;	0,0;	0,0
405,6913757324219;	265,25;	0,0;	0,0
405,74700927734375;	281,75;	0,0;	0,0
405,8025817871094;	347,5;	0,0;	0,0
405,85821533203125;	379,5;	0,0;	0,0
405,913818359375;	322,25;	0,0;	0,0
405,96942138671875;	297,5;	0,0;	0,0
406,02496337890625;	296,75;	0,0;	0,0
406,0805358886719;	286,25;	0,0;	0,0
406,1361083984375;	284,75;	0,0;	0,0
406,191650390625;	332,5;	0,0;	0,0
406,2471618652344;	417,75;	0,0;	0,0
406,3027038574219;	781,75;	0,0;	0,0
406,3582458496094;	1897,5;	0,0;	0,0
406,4137268066406;	4108,75;	0,0;	0,0
406,4692077636719;	1472,25;	0,0;	0,0
406,5246887207031;	373,25;	0,0;	0,0
406,5802001953125;	324,75;	0,0;	0,0
406,6356506347656;	303,75;	0,0;	0,0
406,69110107421875;	359,75;	0,0;	0,0
406,74658203125;	457,5;	0,0;	0,0
406,8019714355469;	479,0;	0,0;	0,0
406,857421875;	468,75;	0,0;	0,0
406,912841796875;	316,75;	0,0;	0,0
406,96826171875;	291,25;	0,0;	0,0
407,0236511230469;	296,75;	0,0;	0,0
407,0790710449219;	422,0;	0,0;	0,0
407,1344299316406;	912,25;	0,0;	0,0
407,1897888183594;	2347,75;	0,0;	0,0
407,24517822265625;	3476,5;	0,0;	0,0
407,3005065917969;	697,75;	0,0;	0,0
407,3558654785156;	340,5;	0,0;	0,0
407,4111633300781;	350,5;	0,0;	0,0
407,46649169921875;	345,25;	0,0;	0,0
407,5218200683594;	372,75;	0,0;	0,0
407,5771179199219;	310,75;	0,0;	0,0
407,6324157714844;	319,75;	0,0;	0,0
407,68768310546875;	423,25;	0,0;	0,0
407,7429504394531;	452,0;	0,0;	0,0
407,7981872558594;	340,75;	0,0;	0,0
407,85345458984375;	348,25;	0,0;	0,0
407,9086608886719;	334,25;	0,0;	0,0
407,96392822265625;	307,5;	0,0;	0,0
408,0191650390625;	355,0;	0,0;	0,0
408,0743408203125;	329,75;	0,0;	0,0
408,12957763671875;	282,5;	0,0;	0,0
408,18475341796875;	285,5;	0,0;	0,0
408,23992919921875;	288,75;	0,0;	0,0
408,29510498046875;	290,0;	0,0;	0,0
408,35028076171875;	310,75;	0,0;	0,0
408,4054260253906;	349,75;	0,0;	0,0
408,4605712890625;	349,25;	0,0;	0,0
408,51568603515625;	428,25;	0,0;	0,0
408,57080078125;	428,5;	0,0;	0,0
408,6259460449219;	338,75;	0,0;	0,0
408,6810302734375;	278,25;	0,0;	0,0
408,73614501953125;	287,5;	0,0;	0,0
408,79119873046875;	267,5;	0,0;	0,0
408,8462829589844;	252,25;	0,0;	0,0
408,9013366699219;	246,25;	0,0;	0,0
408,9563903808594;	275,0;	0,0;	0,0
409,0114440917969;	261,75;	0,0;	0,0
409,0664367675781;	259,75;	0,0;	0,0
409,1214904785156;	276,5;	0,0;	0,0
409,1764831542969;	261,5;	0,0;	0,0
409,2314758300781;	286,5;	0,0;	0,0
409,2864990234375;	276,25;	0,0;	0,0
409,3414611816406;	286,75;	0,0;	0,0
409,39642333984375;	256,25;	0,0;	0,0
409,451416015625;	254,75;	0,0;	0,0
409,50634765625;	273,25;	0,0;	0,0
409,5613098144531;	285,5;	0,0;	0,0
409,6162414550781;	310,75;	0,0;	0,0
409,6711730957031;	356,5;	0,0;	0,0
409,72607421875;	310,25;	0,0;	0,0
409,781005859375;	315,5;	0,0;	0,0
409,83587646484375;	321,25;	0,0;	0,0
409,8907470703125;	341,75;	0,0;	0,0
409,94561767578125;	285,75;	0,0;	0,0
410,0005187988281;	281,5;	0,0;	0,0
410,05535888671875;	298,75;	0,0;	0,0
410,1101989746094;	331,0;	0,0;	0,0
410,1650390625;	298,25;	0,0;	0,0
410,2198486328125;	287,25;	0,0;	0,0
410,2746887207031;	282,25;	0,0;	0,0
410,3294677734375;	251,25;	0,0;	0,0
410,3842468261719;	300,5;	0,0;	0,0
410,43902587890625;	317,5;	0,0;	0,0
410,4938049316406;	310,0;	0,0;	0,0
410,548583984375;	287,5;	0,0;	0,0
410,60333251953125;	293,0;	0,0;	0,0
410,6580810546875;	299,25;	0,0;	0,0
410,7127990722656;	344,25;	0,0;	0,0
410,7675476074219;	404,0;	0,0;	0,0
410,8222351074219;	479,75;	0,0;	0,0
410,876953125;	287,0;	0,0;	0,0
410,931640625;	303,0;	0,0;	0,0
410,986328125;	359,5;	0,0;	0,0
411,041015625;	399,0;	0,0;	0,0
411,095703125;	293,25;	0,0;	0,0
411,15032958984375;	289,5;	0,0;	0,0
411,2049865722656;	282,0;	0,0;	0,0
411,2596130371094;	308,75;	0,0;	0,0
411,3142395019531;	310,0;	0,0;	0,0
411,3688659667969;	318,0;	0,0;	0,0
411,4234619140625;	287,25;	0,0;	0,0
411,4780578613281;	329,5;	0,0;	0,0
411,53265380859375;	327,75;	0,0;	0,0
411,58721923828125;	290,0;	0,0;	0,0
411,64178466796875;	259,0;	0,0;	0,0
411,6963195800781;	267,5;	0,0;	0,0
411,7508544921875;	286,75;	0,0;	0,0
411,805419921875;	350,25;	0,0;	0,0
411,8598937988281;	551,5;	0,0;	0,0
411,9144287109375;	910,0;	0,0;	0,0
411,96893310546875;	432,75;	0,0;	0,0
412,0234375;	308,25;	0,0;	0,0
412,0779113769531;	340,5;	0,0;	0,0
412,13238525390625;	280,75;	0,0;	0,0
412,1868591308594;	287,5;	0,0;	0,0
412,2413330078125;	346,75;	0,0;	0,0
412,2957458496094;	315,5;	0,0;	0,0
412,3501892089844;	284,75;	0,0;	0,0
412,4046325683594;	290,75;	0,0;	0,0
412,45904541015625;	299,25;	0,0;	0,0
412,5134582519531;	274,25;	0,0;	0,0
412,56781005859375;	293,75;	0,0;	0,0
412,6222229003906;	319,25;	0,0;	0,0
412,6766052246094;	349,25;	0,0;	0,0
412,73095703125;	315,0;	0,0;	0,0
412,7853088378906;	389,5;	0,0;	0,0
412,83966064453125;	416,25;	0,0;	0,0
412,8940124511719;	286,5;	0,0;	0,0
412,94830322265625;	279,0;	0,0;	0,0
413,0025939941406;	295,5;	0,0;	0,0
413,0569152832031;	292,75;	0,0;	0,0
413,1112060546875;	322,0;	0,0;	0,0
413,1654968261719;	501,25;	0,0;	0,0
413,2197570800781;	1296,0;	0,0;	0,0
413,2740173339844;	2129,25;	0,0;	0,0
413,3282775878906;	693,75;	0,0;	0,0
413,3825378417969;	427,0;	0,0;	0,0
413,436767578125;	384,5;	0,0;	0,0
413,4909973144531;	570,5;	0,0;	0,0
413,5451965332031;	606,5;	0,0;	0,0
413,5993957519531;	290,75;	0,0;	0,0
413,65362548828125;	285,0;	0,0;	0,0
413,7077941894531;	364,25;	0,0;	0,0
413,761962890625;	432,75;	0,0;	0,0
413,8161315917969;	301,75;	0,0;	0,0
413,87030029296875;	278,75;	0,0;	0,0
413,9244079589844;	264,0;	0,0;	0,0
413,97857666015625;	289,0;	0,0;	0,0
414,0326843261719;	290,75;	0,0;	0,0
414,0867919921875;	282,25;	0,0;	0,0
414,1408996582031;	276,25;	0,0;	0,0
414,1949462890625;	292,0;	0,0;	0,0
414,2490539550781;	353,5;	0,0;	0,0
414,3031311035156;	477,75;	0,0;	0,0
414,357177734375;	1041,0;	0,0;	0,0
414,4112548828125;	2613,0;	0,0;	0,0
414,46527099609375;	2387,5;	0,0;	0,0
414,5193176269531;	424,25;	0,0;	0,0
414,5733337402344;	321,75;	0,0;	0,0
414,6273498535156;	313,0;	0,0;	0,0
414,6813659667969;	313,5;	0,0;	0,0
414,7353515625;	321,25;	0,0;	0,0
414,7893371582031;	361,5;	0,0;	0,0
414,8432922363281;	409,25;	0,0;	0,0
414,89727783203125;	284,0;	0,0;	0,0
414,95123291015625;	341,75;	0,0;	0,0
415,0051574707031;	349,0;	0,0;	0,0
415,05908203125;	308,25;	0,0;	0,0
415,1130065917969;	298,0;	0,0;	0,0
415,16693115234375;	304,0;	0,0;	0,0
415,2208251953125;	314,75;	0,0;	0,0
415,27471923828125;	357,5;	0,0;	0,0
415,32861328125;	351,5;	0,0;	0,0
415,3824768066406;	432,0;	0,0;	0,0
415,43634033203125;	654,0;	0,0;	0,0
415,49017333984375;	812,25;	0,0;	0,0
415,54400634765625;	644,75;	0,0;	0,0
415,59783935546875;	400,25;	0,0;	0,0
415,65167236328125;	382,5;	0,0;	0,0
415,7054748535156;	548,5;	0,0;	0,0
415,75927734375;	572,0;	0,0;	0,0
415,81304931640625;	446,25;	0,0;	0,0
415,8668518066406;	433,0;	0,0;	0,0
415,9206237792969;	408,25;	0,0;	0,0
415,974365234375;	351,25;	0,0;	0,0
416,02813720703125;	307,0;	0,0;	0,0
416,0818786621094;	321,5;	0,0;	0,0
416,1355895996094;	301,5;	0,0;	0,0
416,1893005371094;	272,5;	0,0;	0,0
416,2430114746094;	286,5;	0,0;	0,0
416,2967224121094;	268,0;	0,0;	0,0
416,35040283203125;	282,75;	0,0;	0,0
416,4040832519531;	296,25;	0,0;	0,0
416,457763671875;	284,25;	0,0;	0,0
416,51141357421875;	292,25;	0,0;	0,0
416,5650634765625;	277,0;	0,0;	0,0
416,6186828613281;	288,25;	0,0;	0,0
416,6723327636719;	259,0;	0,0;	0,0
416,7259521484375;	259,0;	0,0;	0,0
416,779541015625;	274,5;	0,0;	0,0
416,8331298828125;	305,0;	0,0;	0,0
416,88671875;	301,5;	0,0;	0,0
416,9403076171875;	320,5;	0,0;	0,0
416,99383544921875;	292,0;	0,0;	0,0
417,04742431640625;	305,25;	0,0;	0,0
417,1009826660156;	345,5;	0,0;	0,0
417,15447998046875;	436,75;	0,0;	0,0
417,2080383300781;	379,75;	0,0;	0,0
417,2615661621094;	459,0;	0,0;	0,0
417,3150329589844;	397,0;	0,0;	0,0
417,3685607910156;	353,25;	0,0;	0,0
417,4220275878906;	350,75;	0,0;	0,0
417,47552490234375;	328,25;	0,0;	0,0
417,5289611816406;	382,5;	0,0;	0,0
417,5824279785156;	513,0;	0,0;	0,0
417,6358642578125;	608,5;	0,0;	0,0
417,6893310546875;	420,25;	0,0;	0,0
417,74273681640625;	390,5;	0,0;	0,0
417,7961730957031;	366,75;	0,0;	0,0
417,84954833984375;	344,5;	0,0;	0,0
417,9029541015625;	300,75;	0,0;	0,0
417,9563293457031;	308,0;	0,0;	0,0
418,0096740722656;	279,75;	0,0;	0,0
418,0630798339844;	297,25;	0,0;	0,0
418,11639404296875;	359,75;	0,0;	0,0
418,1697692871094;	518,75;	0,0;	0,0
418,22308349609375;	1147,0;	0,0;	0,0
418,2763977050781;	670,75;	0,0;	0,0
418,3297119140625;	359,0;	0,0;	0,0
418,3830261230469;	281,25;	0,0;	0,0
418,4363098144531;	304,25;	0,0;	0,0
418,4895935058594;	370,0;	0,0;	0,0
418,5428466796875;	525,25;	0,0;	0,0
418,59613037109375;	368,0;	0,0;	0,0
418,6493835449219;	400,5;	0,0;	0,0
418,70263671875;	660,0;	0,0;	0,0
418,755859375;	1259,0;	0,0;	0,0
418,80908203125;	1263,0;	0,0;	0,0
418,8622741699219;	1040,0;	0,0;	0,0
418,9154968261719;	388,25;	0,0;	0,0
418,96868896484375;	323,5;	0,0;	0,0
419,0218811035156;	333,0;	0,0;	0,0
419,0750427246094;	338,5;	0,0;	0,0
419,1282043457031;	417,0;	0,0;	0,0
419,18133544921875;	876,5;	0,0;	0,0
419,2344970703125;	700,25;	0,0;	0,0
419,2876281738281;	317,0;	0,0;	0,0
419,3406982421875;	291,75;	0,0;	0,0
419,3938293457031;	293,5;	0,0;	0,0
419,4469299316406;	282,75;	0,0;	0,0
419,4999694824219;	330,0;	0,0;	0,0
419,5530700683594;	437,5;	0,0;	0,0
419,60614013671875;	546,25;	0,0;	0,0
419,6592102050781;	422,75;	0,0;	0,0
419,7122497558594;	417,75;	0,0;	0,0
419,7652893066406;	391,5;	0,0;	0,0
419,8183288574219;	592,25;	0,0;	0,0
419,8713073730469;	1288,5;	0,0;	0,0
419,9243469238281;	1651,75;	0,0;	0,0
419,9773254394531;	1673,25;	0,0;	0,0
420,03033447265625;	455,75;	0,0;	0,0
420,0832824707031;	396,5;	0,0;	0,0
420,1362609863281;	518,25;	0,0;	0,0
420,1892395019531;	930,75;	0,0;	0,0
420,2421569824219;	2515,0;	0,0;	0,0
420,29510498046875;	1490,25;	0,0;	0,0
420,3480529785156;	374,25;	0,0;	0,0
420,40093994140625;	420,0;	0,0;	0,0
420,453857421875;	503,75;	0,0;	0,0
420,5067138671875;	331,5;	0,0;	0,0
420,5596008300781;	285,0;	0,0;	0,0
420,6124572753906;	334,0;	0,0;	0,0
420,66534423828125;	292,0;	0,0;	0,0
420,7181701660156;	320,75;	0,0;	0,0
420,7710266113281;	363,25;	0,0;	0,0
420,8238525390625;	300,0;	0,0;	0,0
420,8766784667969;	312,5;	0,0;	0,0
420,9294738769531;	339,0;	0,0;	0,0
420,9822998046875;	329,25;	0,0;	0,0
421,03509521484375;	401,5;	0,0;	0,0
421,0878601074219;	665,5;	0,0;	0,0
421,1406555175781;	405,75;	0,0;	0,0
421,1933898925781;	280,5;	0,0;	0,0
421,24615478515625;	275,5;	0,0;	0,0
421,2988586425781;	268,75;	0,0;	0,0
421,35162353515625;	299,75;	0,0;	0,0
421,4043273925781;	354,25;	0,0;	0,0
421,45703125;	309,75;	0,0;	0,0
421,5097351074219;	312,25;	0,0;	0,0
421,56243896484375;	348,75;	0,0;	0,0
421,6151123046875;	410,25;	0,0;	0,0
421,66778564453125;	478,0;	0,0;	0,0
421,7204284667969;	371,75;	0,0;	0,0
421,7730712890625;	385,0;	0,0;	0,0
421,8257141113281;	426,25;	0,0;	0,0
421,8783264160156;	374,0;	0,0;	0,0
421,9309387207031;	430,5;	0,0;	0,0
421,9835205078125;	833,75;	0,0;	0,0
422,0361328125;	495,5;	0,0;	0,0
422,0887145996094;	350,5;	0,0;	0,0
422,14129638671875;	342,5;	0,0;	0,0
422,19384765625;	364,75;	0,0;	0,0
422,2464294433594;	530,25;	0,0;	0,0
422,2989501953125;	589,25;	0,0;	0,0
422,35150146484375;	404,75;	0,0;	0,0
422,4040222167969;	467,75;	0,0;	0,0
422,45654296875;	588,75;	0,0;	0,0
422,509033203125;	608,5;	0,0;	0,0
422,5615234375;	765,0;	0,0;	0,0
422,614013671875;	1478,75;	0,0;	0,0
422,66650390625;	3294,25;	0,0;	0,0
422,71893310546875;	7512,25;	0,0;	0,0
422,7713928222656;	4124,25;	0,0;	0,0
422,8238525390625;	1537,5;	0,0;	0,0
422,8762512207031;	608,75;	0,0;	0,0
422,9286804199219;	413,5;	0,0;	0,0
422,9811096191406;	352,5;	0,0;	0,0
423,0334777832031;	346,0;	0,0;	0,0
423,08587646484375;	332,25;	0,0;	0,0
423,1382141113281;	326,25;	0,0;	0,0
423,19061279296875;	322,25;	0,0;	0,0
423,24298095703125;	330,75;	0,0;	0,0
423,2953186035156;	349,5;	0,0;	0,0
423,3476257324219;	537,5;	0,0;	0,0
423,3999938964844;	958,0;	0,0;	0,0
423,4522705078125;	699,0;	0,0;	0,0
423,5046081542969;	394,75;	0,0;	0,0
423,556884765625;	535,25;	0,0;	0,0
423,60919189453125;	1108,25;	0,0;	0,0
423,6614685058594;	1649,5;	0,0;	0,0
423,7137145996094;	509,0;	0,0;	0,0
423,7659912109375;	383,75;	0,0;	0,0
423,8182373046875;	382,0;	0,0;	0,0
423,8704528808594;	448,5;	0,0;	0,0
423,92266845703125;	554,25;	0,0;	0,0
423,9748840332031;	508,0;	0,0;	0,0
424,027099609375;	470,25;	0,0;	0,0
424,07928466796875;	361,0;	0,0;	0,0
424,1314697265625;	277,75;	0,0;	0,0
424,18365478515625;	277,0;	0,0;	0,0
424,2358093261719;	291,0;	0,0;	0,0
424,2879333496094;	311,0;	0,0;	0,0
424,340087890625;	301,5;	0,0;	0,0
424,3921813964844;	303,25;	0,0;	0,0
424,4443054199219;	267,0;	0,0;	0,0
424,4964294433594;	282,0;	0,0;	0,0
424,54852294921875;	375,0;	0,0;	0,0
424,6006164550781;	409,25;	0,0;	0,0
424,6526794433594;	323,5;	0,0;	0,0
424,70477294921875;	340,5;	0,0;	0,0
424,7568359375;	478,5;	0,0;	0,0
424,8088684082031;	607,5;	0,0;	0,0
424,8609313964844;	428,5;	0,0;	0,0
424,9129333496094;	399,25;	0,0;	0,0
424,9649353027344;	455,25;	0,0;	0,0
425,0169677734375;	953,25;	0,0;	0,0
425,0689697265625;	2047,25;	0,0;	0,0
425,1209411621094;	2561,75;	0,0;	0,0
425,17291259765625;	1174,0;	0,0;	0,0
425,2248840332031;	323,5;	0,0;	0,0
425,2768249511719;	287,0;	0,0;	0,0
425,3287658691406;	274,5;	0,0;	0,0
425,3807067871094;	292,75;	0,0;	0,0
425,4326171875;	381,0;	0,0;	0,0
425,48455810546875;	560,25;	0,0;	0,0
425,53643798828125;	351,5;	0,0;	0,0
425,58831787109375;	276,75;	0,0;	0,0
425,6401672363281;	279,25;	0,0;	0,0
425,69207763671875;	283,5;	0,0;	0,0
425,7439270019531;	269,5;	0,0;	0,0
425,7957763671875;	283,25;	0,0;	0,0
425,8476257324219;	317,25;	0,0;	0,0
425,8994445800781;	370,0;	0,0;	0,0
425,9512634277344;	396,75;	0,0;	0,0
426,0030822753906;	740,75;	0,0;	0,0
426,05487060546875;	1801,0;	0,0;	0,0
426,1066589355469;	3343,0;	0,0;	0,0
426,158447265625;	1013,0;	0,0;	0,0
426,210205078125;	367,75;	0,0;	0,0
426,261962890625;	326,25;	0,0;	0,0
426,3136901855469;	271,5;	0,0;	0,0
426,3654479980469;	280,0;	0,0;	0,0
426,41717529296875;	281,0;	0,0;	0,0
426,4688720703125;	292,25;	0,0;	0,0
426,5205993652344;	278,5;	0,0;	0,0
426,572265625;	298,75;	0,0;	0,0
426,62396240234375;	298,0;	0,0;	0,0
426,6756286621094;	282,5;	0,0;	0,0
426,727294921875;	313,0;	0,0;	0,0
426,7789306640625;	330,75;	0,0;	0,0
426,83056640625;	357,75;	0,0;	0,0
426,8822021484375;	332,5;	0,0;	0,0
426,93377685546875;	322,75;	0,0;	0,0
426,98541259765625;	364,0;	0,0;	0,0
427,0370178222656;	452,25;	0,0;	0,0
427,0885925292969;	788,25;	0,0;	0,0
427,14019775390625;	1991,25;	0,0;	0,0
427,1917419433594;	4340,75;	0,0;	0,0
427,2433166503906;	4594,0;	0,0;	0,0
427,29486083984375;	680,0;	0,0;	0,0
427,34637451171875;	355,0;	0,0;	0,0
427,3979187011719;	346,5;	0,0;	0,0
427,4494323730469;	335,25;	0,0;	0,0
427,50091552734375;	426,0;	0,0;	0,0
427,55242919921875;	439,5;	0,0;	0,0
427,6039123535156;	292,0;	0,0;	0,0
427,6553955078125;	285,25;	0,0;	0,0
427,70684814453125;	277,0;	0,0;	0,0
427,75830078125;	267,5;	0,0;	0,0
427,80975341796875;	278,75;	0,0;	0,0
427,8612060546875;	286,0;	0,0;	0,0
427,91259765625;	263,0;	0,0;	0,0
427,9639587402344;	271,5;	0,0;	0,0
428,0154113769531;	287,25;	0,0;	0,0
428,0667724609375;	265,75;	0,0;	0,0
428,1181335449219;	296,0;	0,0;	0,0
428,1695251464844;	303,0;	0,0;	0,0
428,22088623046875;	482,25;	0,0;	0,0
428,272216796875;	996,5;	0,0;	0,0
428,32354736328125;	916,25;	0,0;	0,0
428,3748779296875;	487,5;	0,0;	0,0
428,42620849609375;	286,5;	0,0;	0,0
428,4775390625;	275,0;	0,0;	0,0
428,5288391113281;	272,25;	0,0;	0,0
428,5801086425781;	333,5;	0,0;	0,0
428,6313781738281;	317,75;	0,0;	0,0
428,6826477050781;	282,75;	0,0;	0,0
428,7339172363281;	295,5;	0,0;	0,0
428,78515625;	275,5;	0,0;	0,0
428,83636474609375;	284,25;	0,0;	0,0
428,8875732421875;	329,25;	0,0;	0,0
428,93878173828125;	406,25;	0,0;	0,0
428,989990234375;	625,75;	0,0;	0,0
429,04119873046875;	444,25;	0,0;	0,0
429,0923767089844;	303,5;	0,0;	0,0
429,1435241699219;	297,5;	0,0;	0,0
429,1947021484375;	310,0;	0,0;	0,0
429,2458190917969;	292,25;	0,0;	0,0
429,29693603515625;	304,5;	0,0;	0,0
429,34808349609375;	376,25;	0,0;	0,0
429,3992004394531;	617,25;	0,0;	0,0
429,4503173828125;	1342,5;	0,0;	0,0
429,50140380859375;	780,0;	0,0;	0,0
429,552490234375;	293,75;	0,0;	0,0
429,60357666015625;	270,5;	0,0;	0,0
429,6546325683594;	279,0;	0,0;	0,0
429,7056884765625;	271,75;	0,0;	0,0
429,7567138671875;	333,0;	0,0;	0,0
429,8077697753906;	352,25;	0,0;	0,0
429,8587951660156;	454,75;	0,0;	0,0
429,9097900390625;	703,5;	0,0;	0,0
429,9608154296875;	1407,25;	0,0;	0,0
430,01177978515625;	852,0;	0,0;	0,0
430,0627746582031;	340,0;	0,0;	0,0
430,1137390136719;	312,25;	0,0;	0,0
430,1646728515625;	316,75;	0,0;	0,0
430,2156677246094;	453,0;	0,0;	0,0
430,2666015625;	848,5;	0,0;	0,0
430,3175048828125;	922,5;	0,0;	0,0
430,3684387207031;	326,0;	0,0;	0,0
430,4193115234375;	291,75;	0,0;	0,0
430,4701843261719;	302,5;	0,0;	0,0
430,5210876464844;	322,75;	0,0;	0,0
430,57196044921875;	358,75;	0,0;	0,0
430,6228332519531;	385,5;	0,0;	0,0
430,6736755371094;	436,25;	0,0;	0,0
430,7245178222656;	789,75;	0,0;	0,0
430,77532958984375;	1916,75;	0,0;	0,0
430,826171875;	5034,75;	0,0;	0,0
430,8769836425781;	2529,25;	0,0;	0,0
430,92779541015625;	505,5;	0,0;	0,0
430,97857666015625;	425,75;	0,0;	0,0
431,0293273925781;	342,25;	0,0;	0,0
431,0801086425781;	288,75;	0,0;	0,0
431,1308898925781;	288,0;	0,0;	0,0
431,1816101074219;	273,25;	0,0;	0,0
431,23236083984375;	264,75;	0,0;	0,0
431,2830810546875;	269,0;	0,0;	0,0
431,33380126953125;	278,75;	0,0;	0,0
431,3844909667969;	277,0;	0,0;	0,0
431,4352111816406;	315,5;	0,0;	0,0
431,4858703613281;	404,75;	0,0;	0,0
431,53656005859375;	687,5;	0,0;	0,0
431,5871887207031;	562,75;	0,0;	0,0
431,63787841796875;	270,0;	0,0;	0,0
431,6885070800781;	248,75;	0,0;	0,0
431,7391052246094;	280,75;	0,0;	0,0
431,78973388671875;	315,25;	0,0;	0,0
431,84033203125;	318,75;	0,0;	0,0
431,8909606933594;	513,5;	0,0;	0,0
431,9415283203125;	435,25;	0,0;	0,0
431,99212646484375;	269,25;	0,0;	0,0
432,0426940917969;	272,5;	0,0;	0,0
432,0932312011719;	277,75;	0,0;	0,0
432,1437683105469;	280,75;	0,0;	0,0
432,1943054199219;	289,5;	0,0;	0,0
432,2448425292969;	298,0;	0,0;	0,0
432,29534912109375;	262,75;	0,0;	0,0
432,3458557128906;	318,75;	0,0;	0,0
432,3963623046875;	306,75;	0,0;	0,0
432,44683837890625;	419,25;	0,0;	0,0
432,497314453125;	678,0;	0,0;	0,0
432,5477600097656;	1501,25;	0,0;	0,0
432,59820556640625;	4297,75;	0,0;	0,0
432,6486511230469;	3648,25;	0,0;	0,0
432,6990966796875;	537,5;	0,0;	0,0
432,74951171875;	411,0;	0,0;	0,0
432,7999267578125;	327,5;	0,0;	0,0
432,8503112792969;	290,75;	0,0;	0,0
432,9006652832031;	252,5;	0,0;	0,0
432,9510498046875;	268,75;	0,0;	0,0
433,00140380859375;	282,5;	0,0;	0,0
433,0517883300781;	272,75;	0,0;	0,0
433,10211181640625;	260,25;	0,0;	0,0
433,1524658203125;	259,75;	0,0;	0,0
433,2027587890625;	274,25;	0,0;	0,0
433,2530822753906;	250,25;	0,0;	0,0
433,30340576171875;	274,75;	0,0;	0,0
433,3536682128906;	270,0;	0,0;	0,0
433,4039611816406;	267,75;	0,0;	0,0
433,4542541503906;	267,5;	0,0;	0,0
433,5044860839844;	264,0;	0,0;	0,0
433,55474853515625;	277,25;	0,0;	0,0
433,60498046875;	265,0;	0,0;	0,0
433,6551818847656;	319,25;	0,0;	0,0
433,7054138183594;	403,25;	0,0;	0,0
433,755615234375;	575,5;	0,0;	0,0
433,8058166503906;	329,0;	0,0;	0,0
433,8559875488281;	287,0;	0,0;	0,0
433,9061584472656;	273,0;	0,0;	0,0
433,9563293457031;	282,5;	0,0;	0,0
434,0064697265625;	284,25;	0,0;	0,0
434,056640625;	257,5;	0,0;	0,0
434,10675048828125;	260,5;	0,0;	0,0
434,1568603515625;	256,5;	0,0;	0,0
434,20697021484375;	252,25;	0,0;	0,0
434,2570495605469;	271,5;	0,0;	0,0
434,3071594238281;	268,25;	0,0;	0,0
434,35723876953125;	276,75;	0,0;	0,0
434,40728759765625;	292,75;	0,0;	0,0
434,4573669433594;	293,5;	0,0;	0,0
434,50738525390625;	286,25;	0,0;	0,0
434,55743408203125;	283,5;	0,0;	0,0
434,6074523925781;	260,75;	0,0;	0,0
434,657470703125;	266,25;	0,0;	0,0
434,70745849609375;	292,25;	0,0;	0,0
434,7574768066406;	284,5;	0,0;	0,0
434,8074645996094;	255,75;	0,0;	0,0
434,857421875;	269,25;	0,0;	0,0
434,90740966796875;	260,5;	0,0;	0,0
434,95733642578125;	255,5;	0,0;	0,0
435,00726318359375;	258,25;	0,0;	0,0
435,05718994140625;	258,25;	0,0;	0,0
435,1071472167969;	266,5;	0,0;	0,0
435,1570129394531;	301,25;	0,0;	0,0
435,2069396972656;	321,75;	0,0;	0,0
435,25677490234375;	377,0;	0,0;	0,0
435,3066711425781;	500,0;	0,0;	0,0
435,35650634765625;	367,75;	0,0;	0,0
435,4063720703125;	267,0;	0,0;	0,0
435,4562072753906;	257,25;	0,0;	0,0
435,50604248046875;	268,5;	0,0;	0,0
435,5558776855469;	254,0;	0,0;	0,0
435,60565185546875;	278,25;	0,0;	0,0
435,65545654296875;	259,5;	0,0;	0,0
435,70526123046875;	264,5;	0,0;	0,0
435,75506591796875;	281,75;	0,0;	0,0
435,8048095703125;	265,0;	0,0;	0,0
435,85455322265625;	284,5;	0,0;	0,0
435,9043273925781;	281,25;	0,0;	0,0
435,95404052734375;	268,75;	0,0;	0,0
436,0037841796875;	259,75;	0,0;	0,0
436,053466796875;	274,5;	0,0;	0,0
436,1031799316406;	250,75;	0,0;	0,0
436,1528625488281;	271,0;	0,0;	0,0
436,20257568359375;	261,75;	0,0;	0,0
436,2522277832031;	271,75;	0,0;	0,0
436,3019104003906;	261,25;	0,0;	0,0
436,3515625;	272,25;	0,0;	0,0
436,4011535644531;	262,5;	0,0;	0,0
436,4508056640625;	269,75;	0,0;	0,0
436,50042724609375;	272,75;	0,0;	0,0
436,5500183105469;	260,5;	0,0;	0,0
436,599609375;	267,5;	0,0;	0,0
436,6492004394531;	270,75;	0,0;	0,0
436,6987609863281;	257,75;	0,0;	0,0
436,7483215332031;	299,75;	0,0;	0,0
436,7978820800781;	358,25;	0,0;	0,0
436,847412109375;	304,25;	0,0;	0,0
436,8969421386719;	271,25;	0,0;	0,0
436,94647216796875;	304,75;	0,0;	0,0
436,9959716796875;	389,25;	0,0;	0,0
437,0455017089844;	357,0;	0,0;	0,0
437,094970703125;	255,5;	0,0;	0,0
437,1444396972656;	275,0;	0,0;	0,0
437,19390869140625;	271,75;	0,0;	0,0
437,2433776855469;	270,0;	0,0;	0,0
437,2928161621094;	271,5;	0,0;	0,0
437,3422546386719;	253,75;	0,0;	0,0
437,3916931152344;	272,5;	0,0;	0,0
437,4410705566406;	275,25;	0,0;	0,0
437,4905090332031;	307,5;	0,0;	0,0
437,53985595703125;	309,25;	0,0;	0,0
437,5892639160156;	375,25;	0,0;	0,0
437,63861083984375;	576,75;	0,0;	0,0
437,6879577636719;	311,5;	0,0;	0,0
437,7373046875;	247,75;	0,0;	0,0
437,7866516113281;	258,5;	0,0;	0,0
437,8359680175781;	269,5;	0,0;	0,0
437,8852844238281;	253,25;	0,0;	0,0
437,9346008300781;	278,25;	0,0;	0,0
437,98388671875;	293,25;	0,0;	0,0
438,0331726074219;	287,25;	0,0;	0,0
438,0824279785156;	293,75;	0,0;	0,0
438,1317138671875;	311,5;	0,0;	0,0
438,1809387207031;	357,5;	0,0;	0,0
438,2301940917969;	522,5;	0,0;	0,0
438,2794189453125;	1044,0;	0,0;	0,0
438,3286437988281;	2442,25;	0,0;	0,0
438,37786865234375;	6319,25;	0,0;	0,0
438,42706298828125;	4293,75;	0,0;	0,0
438,4762268066406;	650,25;	0,0;	0,0
438,525390625;	387,0;	0,0;	0,0
438,5745849609375;	338,5;	0,0;	0,0
438,62371826171875;	300,0;	0,0;	0,0
438,6728210449219;	287,75;	0,0;	0,0
438,7220153808594;	296,5;	0,0;	0,0
438,7710876464844;	324,0;	0,0;	0,0
438,8202209472656;	374,25;	0,0;	0,0
438,8692932128906;	366,5;	0,0;	0,0
438,91839599609375;	316,75;	0,0;	0,0
438,96746826171875;	284,25;	0,0;	0,0
439,01654052734375;	281,0;	0,0;	0,0
439,0655822753906;	301,0;	0,0;	0,0
439,1146240234375;	311,75;	0,0;	0,0
439,1636962890625;	291,25;	0,0;	0,0
439,21270751953125;	273,0;	0,0;	0,0
439,26171875;	275,0;	0,0;	0,0
439,3106994628906;	278,5;	0,0;	0,0
439,3597106933594;	283,25;	0,0;	0,0
439,4086608886719;	256,0;	0,0;	0,0
439,4576416015625;	279,0;	0,0;	0,0
439,506591796875;	250,0;	0,0;	0,0
439,5555419921875;	274,75;	0,0;	0,0
439,6044921875;	270,5;	0,0;	0,0
439,6534118652344;	267,5;	0,0;	0,0
439,70233154296875;	274,5;	0,0;	0,0
439,7512512207031;	266,0;	0,0;	0,0
439,8001403808594;	268,75;	0,0;	0,0
439,8489990234375;	259,75;	0,0;	0,0
439,8978576660156;	254,25;	0,0;	0,0
439,94677734375;	258,75;	0,0;	0,0
439,9955749511719;	259,0;	0,0;	0,0
440,0444030761719;	267,75;	0,0;	0,0
440,0932312011719;	282,25;	0,0;	0,0
440,1420593261719;	297,0;	0,0;	0,0
440,19085693359375;	321,25;	0,0;	0,0
440,2396545410156;	333,5;	0,0;	0,0
440,2884521484375;	297,75;	0,0;	0,0
440,3372497558594;	407,0;	0,0;	0,0
440,385986328125;	651,0;	0,0;	0,0
440,4347229003906;	1314,5;	0,0;	0,0
440,48345947265625;	3393,75;	0,0;	0,0
440,5322265625;	3857,25;	0,0;	0,0
440,5809326171875;	570,5;	0,0;	0,0
440,629638671875;	353,0;	0,0;	0,0
440,6783447265625;	303,25;	0,0;	0,0
440,7270202636719;	287,25;	0,0;	0,0
440,77569580078125;	324,5;	0,0;	0,0
440,8243713378906;	348,25;	0,0;	0,0
440,8730163574219;	367,5;	0,0;	0,0
440,9216613769531;	307,5;	0,0;	0,0
440,9703063964844;	260,5;	0,0;	0,0
441,0188903808594;	252,75;	0,0;	0,0
441,0675354003906;	286,0;	0,0;	0,0
441,1160888671875;	263,25;	0,0;	0,0
441,1647033691406;	261,25;	0,0;	0,0
441,2132568359375;	232,75;	0,0;	0,0
441,2618408203125;	255,25;	0,0;	0,0
441,3103942871094;	282,0;	0,0;	0,0
441,35894775390625;	287,0;	0,0;	0,0
441,4075012207031;	401,5;	0,0;	0,0
441,45599365234375;	635,25;	0,0;	0,0
441,5044860839844;	1265,5;	0,0;	0,0
441,5530090332031;	2372,0;	0,0;	0,0
441,60150146484375;	673,5;	0,0;	0,0
441,64996337890625;	307,75;	0,0;	0,0
441,6984558105469;	276,0;	0,0;	0,0
441,7469177246094;	289,75;	0,0;	0,0
441,79534912109375;	265,0;	0,0;	0,0
441,8437805175781;	263,25;	0,0;	0,0
441,8922119140625;	256,75;	0,0;	0,0
441,9406433105469;	249,0;	0,0;	0,0
441,9890441894531;	247,75;	0,0;	0,0
442,03741455078125;	253,0;	0,0;	0,0
442,0858154296875;	246,5;	0,0;	0,0
442,1341552734375;	252,25;	0,0;	0,0
442,18255615234375;	281,0;	0,0;	0,0
442,2308654785156;	299,25;	0,0;	0,0
442,2792053222656;	371,0;	0,0;	0,0
442,3275146484375;	321,75;	0,0;	0,0
442,3758544921875;	259,5;	0,0;	0,0
442,4241638183594;	271,0;	0,0;	0,0
442,4724426269531;	308,0;	0,0;	0,0
442,520751953125;	325,5;	0,0;	0,0
442,5690002441406;	450,25;	0,0;	0,0
442,6172790527344;	364,25;	0,0;	0,0
442,66552734375;	317,0;	0,0;	0,0
442,7137756347656;	422,5;	0,0;	0,0
442,7619934082031;	572,75;	0,0;	0,0
442,8102111816406;	368,5;	0,0;	0,0
442,8583984375;	283,0;	0,0;	0,0
442,9066162109375;	257,5;	0,0;	0,0
442,9548034667969;	286,75;	0,0;	0,0
443,0029602050781;	287,75;	0,0;	0,0
443,0511169433594;	306,25;	0,0;	0,0
443,0992736816406;	376,0;	0,0;	0,0
443,1474304199219;	283,25;	0,0;	0,0
443,195556640625;	277,25;	0,0;	0,0
443,2436828613281;	281,75;	0,0;	0,0
443,2917785644531;	304,0;	0,0;	0,0
443,33984375;	324,5;	0,0;	0,0
443,3879699707031;	336,0;	0,0;	0,0
443,4360046386719;	420,0;	0,0;	0,0
443,48406982421875;	528,75;	0,0;	0,0
443,5321350097656;	683,0;	0,0;	0,0
443,5802001953125;	468,75;	0,0;	0,0
443,6282043457031;	392,5;	0,0;	0,0
443,6762390136719;	285,5;	0,0;	0,0
443,7242431640625;	267,25;	0,0;	0,0
443,7722473144531;	272,0;	0,0;	0,0
443,8202209472656;	263,25;	0,0;	0,0
443,86822509765625;	263,25;	0,0;	0,0
443,9161682128906;	276,25;	0,0;	0,0
443,964111328125;	250,5;	0,0;	0,0
444,0120544433594;	263,5;	0,0;	0,0
444,05999755859375;	264,0;	0,0;	0,0
444,10791015625;	286,0;	0,0;	0,0
444,15582275390625;	284,0;	0,0;	0,0
444,2037353515625;	325,25;	0,0;	0,0
444,2516174316406;	513,75;	0,0;	0,0
444,29949951171875;	463,0;	0,0;	0,0
444,34735107421875;	392,5;	0,0;	0,0
444,3952331542969;	329,0;	0,0;	0,0
444,4430236816406;	258,0;	0,0;	0,0
444,49090576171875;	273,75;	0,0;	0,0
444,5386962890625;	254,5;	0,0;	0,0
444,58648681640625;	265,75;	0,0;	0,0
444,6343078613281;	278,0;	0,0;	0,0
444,6820983886719;	295,5;	0,0;	0,0
444,7298583984375;	336,25;	0,0;	0,0
444,77764892578125;	411,25;	0,0;	0,0
444,82537841796875;	414,25;	0,0;	0,0
444,8731384277344;	269,0;	0,0;	0,0
444,9208679199219;	271,75;	0,0;	0,0
444,9685974121094;	252,5;	0,0;	0,0
445,0163269042969;	263,0;	0,0;	0,0
445,0639953613281;	259,0;	0,0;	0,0
445,1117248535156;	275,5;	0,0;	0,0
445,1593933105469;	298,25;	0,0;	0,0
445,2070617675781;	288,25;	0,0;	0,0
445,25469970703125;	274,5;	0,0;	0,0
445,3023376464844;	263,0;	0,0;	0,0
445,3499755859375;	308,75;	0,0;	0,0
445,3976135253906;	420,0;	0,0;	0,0
445,4452209472656;	582,0;	0,0;	0,0
445,4928283691406;	983,75;	0,0;	0,0
445,5404357910156;	731,5;	0,0;	0,0
445,5880126953125;	423,25;	0,0;	0,0
445,63555908203125;	431,0;	0,0;	0,0
445,6831359863281;	288,0;	0,0;	0,0
445,73065185546875;	286,75;	0,0;	0,0
445,7781982421875;	282,25;	0,0;	0,0
445,8257141113281;	304,5;	0,0;	0,0
445,87322998046875;	355,0;	0,0;	0,0
445,92071533203125;	469,5;	0,0;	0,0
445,9682312011719;	452,25;	0,0;	0,0
446,01568603515625;	300,0;	0,0;	0,0
446,06317138671875;	292,75;	0,0;	0,0
446,1106262207031;	310,0;	0,0;	0,0
446,1580810546875;	409,75;	0,0;	0,0
446,2055358886719;	442,5;	0,0;	0,0
446,2529602050781;	316,5;	0,0;	0,0
446,30035400390625;	256,75;	0,0;	0,0
446,3477478027344;	254,5;	0,0;	0,0
446,3951416015625;	252,25;	0,0;	0,0
446,4425354003906;	287,25;	0,0;	0,0
446,4898986816406;	265,75;	0,0;	0,0
446,5372619628906;	294,75;	0,0;	0,0
446,5846252441406;	322,25;	0,0;	0,0
446,6319580078125;	412,5;	0,0;	0,0
446,6792907714844;	598,0;	0,0;	0,0
446,7265625;	402,25;	0,0;	0,0
446,7738952636719;	264,25;	0,0;	0,0
446,8211669921875;	259,5;	0,0;	0,0
446,8684387207031;	258,25;	0,0;	0,0
446,91571044921875;	331,0;	0,0;	0,0
446,9629821777344;	364,0;	0,0;	0,0
447,0102233886719;	306,0;	0,0;	0,0
447,05743408203125;	298,75;	0,0;	0,0
447,10467529296875;	278,5;	0,0;	0,0
447,1518859863281;	262,5;	0,0;	0,0
447,1990966796875;	244,0;	0,0;	0,0
447,2463073730469;	253,5;	0,0;	0,0
447,2934875488281;	281,25;	0,0;	0,0
447,34063720703125;	262,75;	0,0;	0,0
447,3878173828125;	261,75;	0,0;	0,0
447,4349365234375;	261,0;	0,0;	0,0
447,4820861816406;	283,25;	0,0;	0,0
447,5292053222656;	328,5;	0,0;	0,0
447,5763244628906;	382,25;	0,0;	0,0
447,6234436035156;	541,75;	0,0;	0,0
447,6705322265625;	408,5;	0,0;	0,0
447,7176208496094;	271,0;	0,0;	0,0
447,7646789550781;	269,75;	0,0;	0,0
447,81170654296875;	262,0;	0,0;	0,0
447,8587951660156;	279,25;	0,0;	0,0
447,9057922363281;	245,75;	0,0;	0,0
447,95281982421875;	272,5;	0,0;	0,0
447,9998474121094;	280,25;	0,0;	0,0
448,0468444824219;	271,5;	0,0;	0,0
448,0938415527344;	282,0;	0,0;	0,0
448,1408386230469;	279,25;	0,0;	0,0
448,18780517578125;	371,25;	0,0;	0,0
448,2347412109375;	461,0;	0,0;	0,0
448,28167724609375;	411,75;	0,0;	0,0
448,3286437988281;	281,0;	0,0;	0,0
448,3755798339844;	286,0;	0,0;	0,0
448,4224853515625;	296,5;	0,0;	0,0
448,4693908691406;	303,5;	0,0;	0,0
448,51629638671875;	268,25;	0,0;	0,0
448,56317138671875;	269,5;	0,0;	0,0
448,61004638671875;	262,5;	0,0;	0,0
448,6568908691406;	267,25;	0,0;	0,0
448,7037353515625;	237,75;	0,0;	0,0
448,7505798339844;	253,5;	0,0;	0,0
448,79742431640625;	258,75;	0,0;	0,0
448,8442077636719;	257,25;	0,0;	0,0
448,8910217285156;	266,5;	0,0;	0,0
448,9378356933594;	276,75;	0,0;	0,0
448,98455810546875;	304,25;	0,0;	0,0
449,0313415527344;	307,75;	0,0;	0,0
449,0780944824219;	297,5;	0,0;	0,0
449,1248474121094;	262,25;	0,0;	0,0
449,1716003417969;	269,75;	0,0;	0,0
449,21832275390625;	258,0;	0,0;	0,0
449,2650146484375;	224,75;	0,0;	0,0
449,31170654296875;	257,25;	0,0;	0,0
449,3583984375;	299,5;	0,0;	0,0
449,40509033203125;	349,75;	0,0;	0,0
449,4517517089844;	467,5;	0,0;	0,0
449,4984130859375;	527,25;	0,0;	0,0
449,5450744628906;	285,5;	0,0;	0,0
449,5917053222656;	268,75;	0,0;	0,0
449,6383361816406;	265,75;	0,0;	0,0
449,6849670410156;	255,75;	0,0;	0,0
449,7315673828125;	267,5;	0,0;	0,0
449,77813720703125;	277,75;	0,0;	0,0
449,8247375488281;	277,25;	0,0;	0,0
449,8713073730469;	275,25;	0,0;	0,0
449,9178466796875;	267,75;	0,0;	0,0
449,96441650390625;	248,75;	0,0;	0,0
450,0109558105469;	259,75;	0,0;	0,0
450,05743408203125;	260,5;	0,0;	0,0
450,1039733886719;	250,5;	0,0;	0,0
450,15045166015625;	246,75;	0,0;	0,0
450,1969299316406;	255,75;	0,0;	0,0
450,243408203125;	271,25;	0,0;	0,0
450,2899169921875;	260,25;	0,0;	0,0
450,33636474609375;	240,25;	0,0;	0,0
450,3828125;	256,25;	0,0;	0,0
450,4292297363281;	252,75;	0,0;	0,0
450,4756774902344;	280,0;	0,0;	0,0
450,5220947265625;	248,0;	0,0;	0,0
450,5684509277344;	257,5;	0,0;	0,0
450,6148376464844;	251,5;	0,0;	0,0
450,6612243652344;	261,25;	0,0;	0,0
450,7076110839844;	249,5;	0,0;	0,0
450,75396728515625;	256,5;	0,0;	0,0
450,8003234863281;	248,75;	0,0;	0,0
450,84661865234375;	250,25;	0,0;	0,0
450,8929748535156;	248,0;	0,0;	0,0
450,93927001953125;	266,75;	0,0;	0,0
450,985595703125;	242,25;	0,0;	0,0
451,0318603515625;	282,25;	0,0;	0,0
451,078125;	243,5;	0,0;	0,0
451,1243896484375;	261,5;	0,0;	0,0
451,1706848144531;	251,75;	0,0;	0,0
451,2168884277344;	277,5;	0,0;	0,0
451,26312255859375;	236,0;	0,0;	0,0
451,309326171875;	247,25;	0,0;	0,0
451,35552978515625;	253,25;	0,0;	0,0
451,4017333984375;	256,75;	0,0;	0,0
451,44793701171875;	251,25;	0,0;	0,0
451,4941101074219;	267,5;	0,0;	0,0
451,540283203125;	243,5;	0,0;	0,0
451,58642578125;	268,5;	0,0;	0,0
451,632568359375;	249,25;	0,0;	0,0
451,6787109375;	257,5;	0,0;	0,0
451,7248229980469;	277,75;	0,0;	0,0
451,77093505859375;	276,75;	0,0;	0,0
451,8170166015625;	255,25;	0,0;	0,0
451,8631286621094;	263,0;	0,0;	0,0
451,9092102050781;	239,25;	0,0;	0,0
451,95526123046875;	257,75;	0,0;	0,0
452,0013427734375;	251,75;	0,0;	0,0
452,04736328125;	257,5;	0,0;	0,0
452,0933837890625;	253,5;	0,0;	0,0
452,139404296875;	246,0;	0,0;	0,0
452,1854248046875;	268,25;	0,0;	0,0
452,2314147949219;	266,75;	0,0;	0,0
452,2773742675781;	262,25;	0,0;	0,0
452,3233642578125;	278,25;	0,0;	0,0
452,36932373046875;	273,0;	0,0;	0,0
452,4152526855469;	276,0;	0,0;	0,0
452,4612121582031;	290,75;	0,0;	0,0
452,5071105957031;	305,0;	0,0;	0,0
452,55303955078125;	334,5;	0,0;	0,0
452,5989685058594;	260,0;	0,0;	0,0
452,64483642578125;	287,0;	0,0;	0,0
452,6907653808594;	296,75;	0,0;	0,0
452,7366027832031;	320,5;	0,0;	0,0
452,7825012207031;	387,25;	0,0;	0,0
452,8283386230469;	467,0;	0,0;	0,0
452,8741455078125;	854,0;	0,0;	0,0
452,9200134277344;	564,25;	0,0;	0,0
452,9658203125;	283,25;	0,0;	0,0
453,0116271972656;	273,0;	0,0;	0,0
453,0574035644531;	286,0;	0,0;	0,0
453,10321044921875;	319,5;	0,0;	0,0
453,1489562988281;	373,0;	0,0;	0,0
453,1947326660156;	277,0;	0,0;	0,0
453,240478515625;	280,5;	0,0;	0,0
453,2862243652344;	260,5;	0,0;	0,0
453,3319091796875;	279,75;	0,0;	0,0
453,3776550292969;	249,0;	0,0;	0,0
453,42333984375;	261,5;	0,0;	0,0
453,4690246582031;	241,25;	0,0;	0,0
453,51470947265625;	262,75;	0,0;	0,0
453,56036376953125;	246,25;	0,0;	0,0
453,6060485839844;	261,0;	0,0;	0,0
453,65167236328125;	262,75;	0,0;	0,0
453,69732666015625;	252,5;	0,0;	0,0
453,7429504394531;	267,25;	0,0;	0,0
453,7885437011719;	258,5;	0,0;	0,0
453,8341369628906;	249,0;	0,0;	0,0
453,8797302246094;	246,25;	0,0;	0,0
453,92535400390625;	230,75;	0,0;	0,0
453,9709167480469;	234,5;	0,0;	0,0
454,0164794921875;	247,75;	0,0;	0,0
454,0619812011719;	261,5;	0,0;	0,0
454,1075134277344;	244,0;	0,0;	0,0
454,1530456542969;	254,75;	0,0;	0,0
454,1985778808594;	269,75;	0,0;	0,0
454,24407958984375;	252,75;	0,0;	0,0
454,28955078125;	260,25;	0,0;	0,0
454,3350524902344;	263,0;	0,0;	0,0
454,3804931640625;	263,25;	0,0;	0,0
454,42596435546875;	250,75;	0,0;	0,0
454,4713439941406;	272,25;	0,0;	0,0
454,516845703125;	260,0;	0,0;	0,0
454,5622253417969;	249,0;	0,0;	0,0
454,6076354980469;	243,5;	0,0;	0,0
454,6530456542969;	249,75;	0,0;	0,0
454,69842529296875;	269,0;	0,0;	0,0
454,7438049316406;	269,5;	0,0;	0,0
454,7891540527344;	312,5;	0,0;	0,0
454,8345031738281;	305,25;	0,0;	0,0
454,8798522949219;	263,75;	0,0;	0,0
454,9252014160156;	263,5;	0,0;	0,0
454,97052001953125;	270,25;	0,0;	0,0
455,01580810546875;	280,25;	0,0;	0,0
455,06109619140625;	264,5;	0,0;	0,0
455,10638427734375;	267,25;	0,0;	0,0
455,1516418457031;	271,75;	0,0;	0,0
455,1969299316406;	258,5;	0,0;	0,0
455,2421569824219;	264,0;	0,0;	0,0
455,28741455078125;	299,25;	0,0;	0,0
455,3326416015625;	309,0;	0,0;	0,0
455,37786865234375;	349,25;	0,0;	0,0
455,4230651855469;	433,25;	0,0;	0,0
455,46826171875;	322,5;	0,0;	0,0
455,5133972167969;	276,5;	0,0;	0,0
455,55859375;	300,0;	0,0;	0,0
455,603759765625;	301,0;	0,0;	0,0
455,6488952636719;	292,0;	0,0;	0,0
455,69403076171875;	256,75;	0,0;	0,0
455,7391357421875;	252,75;	0,0;	0,0
455,7842712402344;	266,5;	0,0;	0,0
455,8293762207031;	255,5;	0,0;	0,0
455,8744812011719;	264,5;	0,0;	0,0
455,9195251464844;	254,75;	0,0;	0,0
455,964599609375;	248,75;	0,0;	0,0
456,0096740722656;	235,25;	0,0;	0,0
456,0547180175781;	260,75;	0,0;	0,0
456,0997619628906;	250,75;	0,0;	0,0
456,144775390625;	246,25;	0,0;	0,0
456,18975830078125;	265,75;	0,0;	0,0
456,23480224609375;	243,5;	0,0;	0,0
456,27978515625;	245,25;	0,0;	0,0
456,3247375488281;	251,25;	0,0;	0,0
456,3697204589844;	246,5;	0,0;	0,0
456,4146728515625;	245,75;	0,0;	0,0
456,4595947265625;	246,25;	0,0;	0,0
456,5045471191406;	236,0;	0,0;	0,0
456,5494384765625;	265,5;	0,0;	0,0
456,5943908691406;	257,25;	0,0;	0,0
456,6392517089844;	241,25;	0,0;	0,0
456,6841125488281;	249,0;	0,0;	0,0
456,72900390625;	265,0;	0,0;	0,0
456,77386474609375;	261,25;	0,0;	0,0
456,8186950683594;	244,5;	0,0;	0,0
456,8635559082031;	245,5;	0,0;	0,0
456,90838623046875;	241,5;	0,0;	0,0
456,9532165527344;	245,5;	0,0;	0,0
456,9980163574219;	250,0;	0,0;	0,0
457,04278564453125;	249,75;	0,0;	0,0
457,08758544921875;	237,75;	0,0;	0,0
457,13238525390625;	256,75;	0,0;	0,0
457,1771240234375;	232,75;	0,0;	0,0
457,2218933105469;	254,5;	0,0;	0,0
457,2666320800781;	246,75;	0,0;	0,0
457,31134033203125;	266,25;	0,0;	0,0
457,3560485839844;	235,75;	0,0;	0,0
457,4007568359375;	235,25;	0,0;	0,0
457,4454345703125;	260,75;	0,0;	0,0
457,4901428222656;	232,25;	0,0;	0,0
457,5347900390625;	231,5;	0,0;	0,0
457,5794677734375;	239,75;	0,0;	0,0
457,62408447265625;	237,5;	0,0;	0,0
457,668701171875;	240,25;	0,0;	0,0
457,7133483886719;	229,5;	0,0;	0,0
457,7579345703125;	244,75;	0,0;	0,0
457,80255126953125;	248,25;	0,0;	0,0
457,84710693359375;	244,25;	0,0;	0,0
457,8916931152344;	248,0;	0,0;	0,0
457,936279296875;	257,75;	0,0;	0,0
457,9808349609375;	251,25;	0,0;	0,0
458,025390625;	268,5;	0,0;	0,0
458,0699157714844;	248,5;	0,0;	0,0
458,1144104003906;	259,0;	0,0;	0,0
458,158935546875;	297,75;	0,0;	0,0
458,20343017578125;	275,5;	0,0;	0,0
458,2479248046875;	254,75;	0,0;	0,0
458,2923889160156;	266,25;	0,0;	0,0
458,33685302734375;	266,5;	0,0;	0,0
458,3813171386719;	288,25;	0,0;	0,0
458,4257507324219;	284,25;	0,0;	0,0
458,47015380859375;	280,25;	0,0;	0,0
458,51458740234375;	272,0;	0,0;	0,0
458,5589904785156;	263,75;	0,0;	0,0
458,60333251953125;	273,0;	0,0;	0,0
458,6477966308594;	273,0;	0,0;	0,0
458,6921081542969;	246,5;	0,0;	0,0
458,73651123046875;	256,5;	0,0;	0,0
458,78082275390625;	249,75;	0,0;	0,0
458,8251953125;	244,0;	0,0;	0,0
458,8695068359375;	252,0;	0,0;	0,0
458,9137878417969;	246,25;	0,0;	0,0
458,9580993652344;	271,75;	0,0;	0,0
459,00238037109375;	246,25;	0,0;	0,0
459,04669189453125;	258,5;	0,0;	0,0
459,0909423828125;	261,5;	0,0;	0,0
459,13519287109375;	245,5;	0,0;	0,0
459,179443359375;	258,75;	0,0;	0,0
459,22369384765625;	268,0;	0,0;	0,0
459,26788330078125;	306,25;	0,0;	0,0
459,3121032714844;	264,75;	0,0;	0,0
459,3562927246094;	249,25;	0,0;	0,0
459,4004821777344;	270,75;	0,0;	0,0
459,4446716308594;	243,0;	0,0;	0,0
459,48883056640625;	248,5;	0,0;	0,0
459,5329895019531;	284,25;	0,0;	0,0
459,5771179199219;	266,5;	0,0;	0,0
459,6212463378906;	244,75;	0,0;	0,0
459,66534423828125;	272,5;	0,0;	0,0
459,7094421386719;	272,25;	0,0;	0,0
459,7535705566406;	270,0;	0,0;	0,0
459,7976379394531;	267,25;	0,0;	0,0
459,8417053222656;	295,25;	0,0;	0,0
459,8857727050781;	268,25;	0,0;	0,0
459,9298095703125;	249,0;	0,0;	0,0
459,9738464355469;	254,5;	0,0;	0,0
460,01788330078125;	263,0;	0,0;	0,0
460,0618896484375;	264,5;	0,0;	0,0
460,1058654785156;	256,0;	0,0;	0,0
460,14990234375;	274,5;	0,0;	0,0
460,1938781738281;	278,25;	0,0;	0,0
460,2378234863281;	288,0;	0,0;	0,0
460,28179931640625;	321,75;	0,0;	0,0
460,32574462890625;	336,5;	0,0;	0,0
460,3696594238281;	265,25;	0,0;	0,0
460,41357421875;	249,0;	0,0;	0,0
460,4574890136719;	273,0;	0,0;	0,0
460,50140380859375;	236,25;	0,0;	0,0
460,5452575683594;	270,25;	0,0;	0,0
460,58917236328125;	245,5;	0,0;	0,0
460,63299560546875;	263,0;	0,0;	0,0
460,6768798828125;	256,0;	0,0;	0,0
460,7206726074219;	286,0;	0,0;	0,0
460,7645263671875;	312,0;	0,0;	0,0
460,808349609375;	262,75;	0,0;	0,0
460,8521728515625;	249,5;	0,0;	0,0
460,89593505859375;	249,5;	0,0;	0,0
460,93975830078125;	251,0;	0,0;	0,0
460,9834899902344;	243,5;	0,0;	0,0
461,0272521972656;	265,25;	0,0;	0,0
461,0710144042969;	264,25;	0,0;	0,0
461,11474609375;	280,25;	0,0;	0,0
461,158447265625;	311,0;	0,0;	0,0
461,2021789550781;	246,75;	0,0;	0,0
461,2458801269531;	243,5;	0,0;	0,0
461,28955078125;	248,0;	0,0;	0,0
461,333251953125;	270,5;	0,0;	0,0
461,3769226074219;	238,0;	0,0;	0,0
461,4205627441406;	264,25;	0,0;	0,0
461,4642028808594;	247,75;	0,0;	0,0
461,5078430175781;	248,5;	0,0;	0,0
461,55145263671875;	247,25;	0,0;	0,0
461,5950622558594;	215,5;	0,0;	0,0
461,638671875;	249,5;	0,0;	0,0
461,6822509765625;	253,25;	0,0;	0,0
461,7257995605469;	260,75;	0,0;	0,0
461,7693786621094;	245,0;	0,0;	0,0
461,81292724609375;	262,25;	0,0;	0,0
461,85650634765625;	277,25;	0,0;	0,0
461,8999938964844;	261,0;	0,0;	0,0
461,94354248046875;	264,75;	0,0;	0,0
461,9870300292969;	272,0;	0,0;	0,0
462,0304870605469;	256,5;	0,0;	0,0
462,0740051269531;	258,0;	0,0;	0,0
462,1174621582031;	245,5;	0,0;	0,0
462,1609191894531;	239,25;	0,0;	0,0
462,2043762207031;	256,0;	0,0;	0,0
462,247802734375;	254,75;	0,0;	0,0
462,2912292480469;	235,5;	0,0;	0,0
462,3346252441406;	234,25;	0,0;	0,0
462,3780517578125;	258,5;	0,0;	0,0
462,4214172363281;	252,5;	0,0;	0,0
462,4648132324219;	253,25;	0,0;	0,0
462,5081787109375;	259,75;	0,0;	0,0
462,551513671875;	273,5;	0,0;	0,0
462,5948791503906;	261,75;	0,0;	0,0
462,6382141113281;	256,75;	0,0;	0,0
462,6815185546875;	238,5;	0,0;	0,0
462,7248229980469;	241,25;	0,0;	0,0
462,76812744140625;	258,75;	0,0;	0,0
462,8113708496094;	243,25;	0,0;	0,0
462,85467529296875;	244,75;	0,0;	0,0
462,8979187011719;	239,25;	0,0;	0,0
462,9411926269531;	254,5;	0,0;	0,0
462,9844055175781;	248,25;	0,0;	0,0
463,0276184082031;	254,0;	0,0;	0,0
463,0708312988281;	249,25;	0,0;	0,0
463,1140441894531;	254,0;	0,0;	0,0
463,1572265625;	261,75;	0,0;	0,0
463,2004089355469;	271,5;	0,0;	0,0
463,24359130859375;	257,0;	0,0;	0,0
463,2867431640625;	264,5;	0,0;	0,0
463,32989501953125;	258,5;	0,0;	0,0
463,3730163574219;	242,75;	0,0;	0,0
463,4161376953125;	254,75;	0,0;	0,0
463,459228515625;	232,5;	0,0;	0,0
463,5023498535156;	241,75;	0,0;	0,0
463,5454406738281;	246,25;	0,0;	0,0
463,5885009765625;	265,75;	0,0;	0,0
463,6315612792969;	256,75;	0,0;	0,0
463,67462158203125;	253,25;	0,0;	0,0
463,7176513671875;	273,75;	0,0;	0,0
463,76068115234375;	293,0;	0,0;	0,0
463,8036804199219;	295,25;	0,0;	0,0
463,8467102050781;	258,25;	0,0;	0,0
463,8896789550781;	239,0;	0,0;	0,0
463,93267822265625;	258,25;	0,0;	0,0
463,9756164550781;	248,5;	0,0;	0,0
464,0186462402344;	248,0;	0,0;	0,0
464,0615234375;	240,5;	0,0;	0,0
464,1044921875;	268,0;	0,0;	0,0
464,14739990234375;	280,0;	0,0;	0,0
464,1903076171875;	258,75;	0,0;	0,0
464,2331848144531;	257,5;	0,0;	0,0
464,2760925292969;	267,75;	0,0;	0,0
464,3189697265625;	292,0;	0,0;	0,0
464,3618469238281;	282,5;	0,0;	0,0
464,4046936035156;	275,75;	0,0;	0,0
464,4475402832031;	257,75;	0,0;	0,0
464,4903869628906;	246,25;	0,0;	0,0
464,5331726074219;	258,5;	0,0;	0,0
464,57598876953125;	254,75;	0,0;	0,0
464,6188049316406;	266,75;	0,0;	0,0
464,66156005859375;	285,75;	0,0;	0,0
464,704345703125;	272,0;	0,0;	0,0
464,7471008300781;	296,75;	0,0;	0,0
464,78985595703125;	293,25;	0,0;	0,0
464,83258056640625;	247,75;	0,0;	0,0
464,8752746582031;	261,75;	0,0;	0,0
464,9179992675781;	244,0;	0,0;	0,0
464,9606628417969;	249,75;	0,0;	0,0
465,00341796875;	274,0;	0,0;	0,0
465,0460510253906;	235,25;	0,0;	0,0
465,0887145996094;	273,75;	0,0;	0,0
465,1313781738281;	242,5;	0,0;	0,0
465,17401123046875;	256,25;	0,0;	0,0
465,2166748046875;	250,0;	0,0;	0,0
465,2592468261719;	275,0;	0,0;	0,0
465,3018798828125;	277,75;	0,0;	0,0
465,344482421875;	274,75;	0,0;	0,0
465,3870544433594;	280,0;	0,0;	0,0
465,42962646484375;	284,0;	0,0;	0,0
465,4721984863281;	319,5;	0,0;	0,0
465,5147399902344;	303,75;	0,0;	0,0
465,5572814941406;	257,25;	0,0;	0,0
465,59979248046875;	255,5;	0,0;	0,0
465,6423034667969;	233,0;	0,0;	0,0
465,684814453125;	237,75;	0,0;	0,0
465,727294921875;	254,25;	0,0;	0,0
465,769775390625;	248,0;	0,0;	0,0
465,812255859375;	259,75;	0,0;	0,0
465,8547058105469;	244,5;	0,0;	0,0
465,89715576171875;	239,75;	0,0;	0,0
465,9395751953125;	260,0;	0,0;	0,0
465,98199462890625;	240,5;	0,0;	0,0
466,0243835449219;	243,75;	0,0;	0,0
466,0667724609375;	258,25;	0,0;	0,0
466,1091613769531;	263,75;	0,0;	0,0
466,15155029296875;	248,0;	0,0;	0,0
466,19390869140625;	267,25;	0,0;	0,0
466,2362365722656;	275,25;	0,0;	0,0
466,2785949707031;	264,0;	0,0;	0,0
466,3209228515625;	246,75;	0,0;	0,0
466,36322021484375;	253,0;	0,0;	0,0
466,4055480957031;	248,5;	0,0;	0,0
466,44781494140625;	249,0;	0,0;	0,0
466,4900817871094;	248,5;	0,0;	0,0
466,5323791503906;	254,75;	0,0;	0,0
466,5746154785156;	271,0;	0,0;	0,0
466,61688232421875;	262,25;	0,0;	0,0
466,6590881347656;	296,0;	0,0;	0,0
466,7013244628906;	301,75;	0,0;	0,0
466,7435302734375;	330,75;	0,0;	0,0
466,78570556640625;	333,0;	0,0;	0,0
466,8278503417969;	322,0;	0,0;	0,0
466,87005615234375;	305,0;	0,0;	0,0
466,9122009277344;	272,75;	0,0;	0,0
466,9543762207031;	279,75;	0,0;	0,0
466,9964904785156;	270,5;	0,0;	0,0
467,03863525390625;	281,5;	0,0;	0,0
467,08074951171875;	276,0;	0,0;	0,0
467,1228332519531;	270,75;	0,0;	0,0
467,1649169921875;	290,25;	0,0;	0,0
467,20703125;	279,75;	0,0;	0,0
467,24908447265625;	278,25;	0,0;	0,0
467,2911071777344;	264,5;	0,0;	0,0
467,33319091796875;	313,25;	0,0;	0,0
467,3752136230469;	277,0;	0,0;	0,0
467,4172058105469;	275,25;	0,0;	0,0
467,459228515625;	265,5;	0,0;	0,0
467,501220703125;	255,75;	0,0;	0,0
467,5431823730469;	276,0;	0,0;	0,0
467,5851745605469;	263,0;	0,0;	0,0
467,62713623046875;	255,0;	0,0;	0,0
467,6690979003906;	257,25;	0,0;	0,0
467,7110290527344;	283,75;	0,0;	0,0
467,7529602050781;	277,0;	0,0;	0,0
467,79486083984375;	285,0;	0,0;	0,0
467,8367614746094;	281,0;	0,0;	0,0
467,8786315917969;	310,0;	0,0;	0,0
467,9205322265625;	334,25;	0,0;	0,0
467,9623718261719;	288,5;	0,0;	0,0
468,0042419433594;	274,0;	0,0;	0,0
468,04608154296875;	272,5;	0,0;	0,0
468,087890625;	267,0;	0,0;	0,0
468,1297302246094;	246,0;	0,0;	0,0
468,1715393066406;	263,25;	0,0;	0,0
468,21331787109375;	252,0;	0,0;	0,0
468,2550964355469;	262,25;	0,0;	0,0
468,296875;	257,5;	0,0;	0,0
468,3386535644531;	254,0;	0,0;	0,0
468,38037109375;	262,0;	0,0;	0,0
468,422119140625;	258,0;	0,0;	0,0
468,4638366699219;	247,5;	0,0;	0,0
468,50555419921875;	249,25;	0,0;	0,0
468,5472412109375;	262,0;	0,0;	0,0
468,58892822265625;	244,5;	0,0;	0,0
468,630615234375;	254,0;	0,0;	0,0
468,6722717285156;	247,75;	0,0;	0,0
468,71392822265625;	272,5;	0,0;	0,0
468,75555419921875;	236,0;	0,0;	0,0
468,7972106933594;	246,75;	0,0;	0,0
468,83880615234375;	258,5;	0,0;	0,0
468,88043212890625;	252,25;	0,0;	0,0
468,9219665527344;	264,75;	0,0;	0,0
468,9635925292969;	272,0;	0,0;	0,0
469,0051574707031;	259,25;	0,0;	0,0
469,0467224121094;	273,75;	0,0;	0,0
469,0882263183594;	292,0;	0,0;	0,0
469,1297912597656;	271,75;	0,0;	0,0
469,1712951660156;	272,5;	0,0;	0,0
469,2127990722656;	268,0;	0,0;	0,0
469,2543029785156;	251,75;	0,0;	0,0
469,2958068847656;	263,5;	0,0;	0,0
469,3372802734375;	263,25;	0,0;	0,0
469,3787536621094;	261,25;	0,0;	0,0
469,4201965332031;	254,5;	0,0;	0,0
469,4616394042969;	286,75;	0,0;	0,0
469,5030517578125;	247,75;	0,0;	0,0
469,54449462890625;	273,5;	0,0;	0,0
469,58587646484375;	256,0;	0,0;	0,0
469,6272888183594;	257,75;	0,0;	0,0
469,66864013671875;	249,75;	0,0;	0,0
469,7099914550781;	258,75;	0,0;	0,0
469,7513732910156;	272,75;	0,0;	0,0
469,7926940917969;	252,5;	0,0;	0,0
469,83404541015625;	253,75;	0,0;	0,0
469,8753356933594;	268,25;	0,0;	0,0
469,91668701171875;	288,75;	0,0;	0,0
469,95794677734375;	265,75;	0,0;	0,0
469,999267578125;	275,75;	0,0;	0,0
470,0404968261719;	267,25;	0,0;	0,0
470,0817565917969;	263,5;	0,0;	0,0
470,12298583984375;	258,75;	0,0;	0,0
470,16424560546875;	237,75;	0,0;	0,0
470,2054748535156;	249,75;	0,0;	0,0
470,2467041015625;	266,5;	0,0;	0,0
470,28790283203125;	251,25;	0,0;	0,0
470,3290710449219;	263,75;	0,0;	0,0
470,3702392578125;	270,25;	0,0;	0,0
470,41143798828125;	260,25;	0,0;	0,0
470,4526062011719;	276,75;	0,0;	0,0
470,49371337890625;	264,0;	0,0;	0,0
470,53485107421875;	265,75;	0,0;	0,0
470,5759582519531;	281,5;	0,0;	0,0
470,6170959472656;	272,0;	0,0;	0,0
470,6581726074219;	292,75;	0,0;	0,0
470,6992492675781;	296,5;	0,0;	0,0
470,7403259277344;	314,75;	0,0;	0,0
470,7814025878906;	309,25;	0,0;	0,0
470,8223876953125;	262,5;	0,0;	0,0
470,86346435546875;	248,75;	0,0;	0,0
470,90447998046875;	281,25;	0,0;	0,0
470,94549560546875;	259,25;	0,0;	0,0
470,9864807128906;	271,5;	0,0;	0,0
471,0274658203125;	261,75;	0,0;	0,0
471,0684509277344;	261,25;	0,0;	0,0
471,1094055175781;	247,5;	0,0;	0,0
471,15032958984375;	256,5;	0,0;	0,0
471,1912841796875;	251,25;	0,0;	0,0
471,23223876953125;	259,75;	0,0;	0,0
471,27313232421875;	256,0;	0,0;	0,0
471,3140563964844;	251,75;	0,0;	0,0
471,35491943359375;	243,75;	0,0;	0,0
471,39581298828125;	265,5;	0,0;	0,0
471,4366455078125;	252,25;	0,0;	0,0
471,4775390625;	259,5;	0,0;	0,0
471,51837158203125;	237,75;	0,0;	0,0
471,5592041015625;	261,75;	0,0;	0,0
471,60003662109375;	255,75;	0,0;	0,0
471,6408386230469;	252,0;	0,0;	0,0
471,6816101074219;	241,25;	0,0;	0,0
471,722412109375;	266,75;	0,0;	0,0
471,7631530761719;	237,75;	0,0;	0,0
471,8039245605469;	235,75;	0,0;	0,0
471,84466552734375;	263,0;	0,0;	0,0
471,88543701171875;	258,5;	0,0;	0,0
471,9261169433594;	253,25;	0,0;	0,0
471,9668884277344;	248,75;	0,0;	0,0
472,0075378417969;	263,75;	0,0;	0,0
472,0482177734375;	258,5;	0,0;	0,0
472,0888977050781;	241,75;	0,0;	0,0
472,1295471191406;	278,5;	0,0;	0,0
472,17022705078125;	260,25;	0,0;	0,0
472,21087646484375;	293,25;	0,0;	0,0
472,25146484375;	270,75;	0,0;	0,0
472,2920837402344;	256,25;	0,0;	0,0
472,33270263671875;	258,25;	0,0;	0,0
472,373291015625;	237,5;	0,0;	0,0
472,41387939453125;	244,5;	0,0;	0,0
472,4544372558594;	252,25;	0,0;	0,0
472,4949951171875;	249,5;	0,0;	0,0
472,5355529785156;	246,0;	0,0;	0,0
472,5760803222656;	242,25;	0,0;	0,0
472,6166076660156;	283,75;	0,0;	0,0
472,6571044921875;	259,0;	0,0;	0,0
472,6976013183594;	260,25;	0,0;	0,0
472,7380676269531;	275,0;	0,0;	0,0
472,7785339355469;	269,5;	0,0;	0,0
472,81903076171875;	286,25;	0,0;	0,0
472,85943603515625;	264,0;	0,0;	0,0
472,89990234375;	251,5;	0,0;	0,0
472,9402770996094;	265,0;	0,0;	0,0
472,980712890625;	253,75;	0,0;	0,0
473,0211181640625;	258,5;	0,0;	0,0
473,0614929199219;	258,0;	0,0;	0,0
473,1018981933594;	270,25;	0,0;	0,0
473,1422424316406;	269,5;	0,0;	0,0
473,1826171875;	249,75;	0,0;	0,0
473,2229309082031;	261,75;	0,0;	0,0
473,26324462890625;	268,5;	0,0;	0,0
473,3035888671875;	259,0;	0,0;	0,0
473,3439025878906;	256,75;	0,0;	0,0
473,3841552734375;	276,75;	0,0;	0,0
473,4244689941406;	236,25;	0,0;	0,0
473,4647216796875;	253,75;	0,0;	0,0
473,5049743652344;	288,5;	0,0;	0,0
473,54522705078125;	293,75;	0,0;	0,0
473,58544921875;	289,75;	0,0;	0,0
473,62567138671875;	342,0;	0,0;	0,0
473,6658935546875;	343,25;	0,0;	0,0
473,7060546875;	352,75;	0,0;	0,0
473,7462463378906;	260,75;	0,0;	0,0
473,7864074707031;	267,75;	0,0;	0,0
473,82659912109375;	246,5;	0,0;	0,0
473,8667297363281;	255,0;	0,0;	0,0
473,9068298339844;	232,75;	0,0;	0,0
473,9469909667969;	238,75;	0,0;	0,0
473,9870910644531;	254,25;	0,0;	0,0
474,0271911621094;	232,75;	0,0;	0,0
474,0672607421875;	255,0;	0,0;	0,0
474,1073303222656;	256,25;	0,0;	0,0
474,14739990234375;	278,75;	0,0;	0,0
474,18743896484375;	278,0;	0,0;	0,0
474,22747802734375;	268,75;	0,0;	0,0
474,26751708984375;	252,5;	0,0;	0,0
474,30755615234375;	254,5;	0,0;	0,0
474,3475646972656;	276,75;	0,0;	0,0
474,3875427246094;	266,5;	0,0;	0,0
474,4275207519531;	266,25;	0,0;	0,0
474,4674987792969;	261,75;	0,0;	0,0
474,5074462890625;	244,25;	0,0;	0,0
474,5473937988281;	271,25;	0,0;	0,0
474,5873107910156;	274,75;	0,0;	0,0
474,627197265625;	267,0;	0,0;	0,0
474,6671447753906;	267,25;	0,0;	0,0
474,7070007324219;	266,5;	0,0;	0,0
474,7469177246094;	263,0;	0,0;	0,0
474,7867431640625;	256,75;	0,0;	0,0
474,82666015625;	258,5;	0,0;	0,0
474,8664855957031;	261,5;	0,0;	0,0
474,9062805175781;	260,75;	0,0;	0,0
474,9461364746094;	266,0;	0,0;	0,0
474,98590087890625;	262,75;	0,0;	0,0
475,0257263183594;	254,75;	0,0;	0,0
475,0655212402344;	251,75;	0,0;	0,0
475,1053161621094;	268,25;	0,0;	0,0
475,1450500488281;	247,5;	0,0;	0,0
475,184814453125;	268,25;	0,0;	0,0
475,22454833984375;	261,75;	0,0;	0,0
475,2642517089844;	260,75;	0,0;	0,0
475,3039855957031;	264,0;	0,0;	0,0
475,34368896484375;	291,75;	0,0;	0,0
475,38336181640625;	275,0;	0,0;	0,0
475,42303466796875;	271,75;	0,0;	0,0
475,46270751953125;	261,75;	0,0;	0,0
475,5023498535156;	250,5;	0,0;	0,0
475,5419921875;	251,75;	0,0;	0,0
475,5816345214844;	260,5;	0,0;	0,0
475,6212158203125;	256,75;	0,0;	0,0
475,6608581542969;	243,25;	0,0;	0,0
475,7004089355469;	247,75;	0,0;	0,0
475,7400207519531;	249,25;	0,0;	0,0
475,7795715332031;	265,75;	0,0;	0,0
475,8191223144531;	241,25;	0,0;	0,0
475,8586730957031;	248,5;	0,0;	0,0
475,898193359375;	242,75;	0,0;	0,0
475,9377136230469;	258,0;	0,0;	0,0
475,9772033691406;	254,25;	0,0;	0,0
476,0167236328125;	272,5;	0,0;	0,0
476,0561828613281;	234,25;	0,0;	0,0
476,0956726074219;	290,25;	0,0;	0,0
476,1351318359375;	264,5;	0,0;	0,0
476,1745910644531;	286,5;	0,0;	0,0
476,2140197753906;	267,75;	0,0;	0,0
476,2534484863281;	270,0;	0,0;	0,0
476,2928466796875;	236,0;	0,0;	0,0
476,3322448730469;	247,75;	0,0;	0,0
476,3716125488281;	253,25;	0,0;	0,0
476,4110107421875;	247,75;	0,0;	0,0
476,4503479003906;	277,5;	0,0;	0,0
476,4897155761719;	246,5;	0,0;	0,0
476,52899169921875;	253,25;	0,0;	0,0
476,5683898925781;	262,5;	0,0;	0,0
476,607666015625;	272,25;	0,0;	0,0
476,64697265625;	267,25;	0,0;	0,0
476,6862487792969;	254,25;	0,0;	0,0
476,7255554199219;	249,0;	0,0;	0,0
476,7647705078125;	247,75;	0,0;	0,0
476,8040466308594;	256,5;	0,0;	0,0
476,8432922363281;	287,0;	0,0;	0,0
476,88250732421875;	254,5;	0,0;	0,0
476,9217224121094;	264,5;	0,0;	0,0
476,9609069824219;	256,75;	0,0;	0,0
477,0001220703125;	246,75;	0,0;	0,0
477,0392761230469;	251,0;	0,0;	0,0
477,0784606933594;	262,25;	0,0;	0,0
477,1176452636719;	251,25;	0,0;	0,0
477,1567687988281;	254,25;	0,0;	0,0
477,1958923339844;	260,75;	0,0;	0,0
477,2350158691406;	281,5;	0,0;	0,0
477,27410888671875;	261,0;	0,0;	0,0
477,3132019042969;	262,5;	0,0;	0,0
477,352294921875;	262,0;	0,0;	0,0
477,3913879394531;	254,25;	0,0;	0,0
477,4303894042969;	252,75;	0,0;	0,0
477,469482421875;	278,0;	0,0;	0,0
477,50848388671875;	272,75;	0,0;	0,0
477,5475158691406;	254,0;	0,0;	0,0
477,58648681640625;	266,5;	0,0;	0,0
477,62554931640625;	232,25;	0,0;	0,0
477,66448974609375;	251,0;	0,0;	0,0
477,70343017578125;	240,75;	0,0;	0,0
477,7424011230469;	249,5;	0,0;	0,0
477,7813415527344;	236,75;	0,0;	0,0
477,8203125;	237,0;	0,0;	0,0
477,85919189453125;	266,5;	0,0;	0,0
477,89813232421875;	239,25;	0,0;	0,0
477,93701171875;	257,25;	0,0;	0,0
477,9759216308594;	251,25;	0,0;	0,0
478,0147705078125;	233,5;	0,0;	0,0
478,05364990234375;	253,25;	0,0;	0,0
478,092529296875;	246,0;	0,0;	0,0
478,13134765625;	250,5;	0,0;	0,0
478,170166015625;	259,5;	0,0;	0,0
478,2089538574219;	259,25;	0,0;	0,0
478,2477722167969;	261,5;	0,0;	0,0
478,28656005859375;	276,5;	0,0;	0,0
478,3253479003906;	295,75;	0,0;	0,0
478,3641052246094;	302,25;	0,0;	0,0
478,4028625488281;	266,0;	0,0;	0,0
478,4416198730469;	248,25;	0,0;	0,0
478,48028564453125;	258,25;	0,0;	0,0
478,51904296875;	263,75;	0,0;	0,0
478,5577392578125;	249,5;	0,0;	0,0
478,596435546875;	270,0;	0,0;	0,0
478,6351013183594;	280,0;	0,0;	0,0
478,6737365722656;	266,0;	0,0;	0,0
478,71240234375;	297,75;	0,0;	0,0
478,7510681152344;	261,25;	0,0;	0,0
478,7897033691406;	265,5;	0,0;	0,0
478,82830810546875;	274,0;	0,0;	0,0
478,8669128417969;	284,0;	0,0;	0,0
478,9054870605469;	260,75;	0,0;	0,0
478,9440612792969;	274,5;	0,0;	0,0
478,982666015625;	291,75;	0,0;	0,0
479,0212097167969;	247,0;	0,0;	0,0
479,05975341796875;	271,5;	0,0;	0,0
479,0982971191406;	265,75;	0,0;	0,0
479,1368103027344;	260,75;	0,0;	0,0
479,17529296875;	240,25;	0,0;	0,0
479,21380615234375;	247,0;	0,0;	0,0
479,2522888183594;	233,25;	0,0;	0,0
479,29071044921875;	237,25;	0,0;	0,0
479,3292236328125;	252,75;	0,0;	0,0
479,3676452636719;	235,0;	0,0;	0,0
479,4060974121094;	254,0;	0,0;	0,0
479,44451904296875;	243,5;	0,0;	0,0
479,4829406738281;	240,0;	0,0;	0,0
479,52130126953125;	250,25;	0,0;	0,0
479,5596923828125;	237,0;	0,0;	0,0
479,59808349609375;	233,5;	0,0;	0,0
479,63641357421875;	246,25;	0,0;	0,0
479,6747741699219;	242,0;	0,0;	0,0
479,7131042480469;	254,5;	0,0;	0,0
479,7514343261719;	253,5;	0,0;	0,0
479,7897644042969;	243,25;	0,0;	0,0
479,8280334472656;	245,0;	0,0;	0,0
479,8663330078125;	259,0;	0,0;	0,0
479,9045715332031;	268,75;	0,0;	0,0
479,9428405761719;	273,75;	0,0;	0,0
479,9811096191406;	256,0;	0,0;	0,0
480,01934814453125;	240,0;	0,0;	0,0
480,05755615234375;	257,0;	0,0;	0,0
480,0957946777344;	266,25;	0,0;	0,0
480,1340026855469;	282,75;	0,0;	0,0
480,17218017578125;	262,0;	0,0;	0,0
480,2103576660156;	252,5;	0,0;	0,0
480,24847412109375;	267,5;	0,0;	0,0
480,28668212890625;	256,5;	0,0;	0,0
480,3247985839844;	229,75;	0,0;	0,0
480,3629455566406;	261,5;	0,0;	0,0
480,4010314941406;	233,25;	0,0;	0,0
480,4391174316406;	262,25;	0,0;	0,0
480,4772033691406;	231,75;	0,0;	0,0
480,5152893066406;	251,75;	0,0;	0,0
480,5533447265625;	257,75;	0,0;	0,0
480,5914001464844;	262,0;	0,0;	0,0
480,62945556640625;	273,5;	0,0;	0,0
480,66748046875;	255,25;	0,0;	0,0
480,7054748535156;	259,25;	0,0;	0,0
480,7434997558594;	265,25;	0,0;	0,0
480,781494140625;	291,0;	0,0;	0,0
480,8194580078125;	244,75;	0,0;	0,0
480,857421875;	254,0;	0,0;	0,0
480,8953857421875;	282,0;	0,0;	0,0
480,9333190917969;	278,5;	0,0;	0,0
480,9712829589844;	274,0;	0,0;	0,0
481,0091552734375;	273,75;	0,0;	0,0
481,0470886230469;	274,0;	0,0;	0,0
481,0849914550781;	295,5;	0,0;	0,0
481,1228332519531;	256,25;	0,0;	0,0
481,16070556640625;	260,5;	0,0;	0,0
481,1985778808594;	229,75;	0,0;	0,0
481,2364196777344;	240,0;	0,0;	0,0
481,27423095703125;	243,25;	0,0;	0,0
481,3120422363281;	258,5;	0,0;	0,0
481,349853515625;	274,25;	0,0;	0,0
481,3876647949219;	262,25;	0,0;	0,0
481,4254150390625;	245,0;	0,0;	0,0
481,46319580078125;	263,5;	0,0;	0,0
481,5009765625;	268,25;	0,0;	0,0
481,5386962890625;	237,5;	0,0;	0,0
481,576416015625;	233,0;	0,0;	0,0
481,6141662597656;	255,5;	0,0;	0,0
481,65185546875;	259,25;	0,0;	0,0
481,6895446777344;	236,5;	0,0;	0,0
481,72723388671875;	260,75;	0,0;	0,0
481,764892578125;	233,5;	0,0;	0,0
481,8025817871094;	253,75;	0,0;	0,0
481,8402099609375;	249,0;	0,0;	0,0
481,8778381347656;	234,25;	0,0;	0,0
481,91546630859375;	242,25;	0,0;	0,0
481,95306396484375;	263,25;	0,0;	0,0
481,99066162109375;	248,25;	0,0;	0,0
482,02825927734375;	246,5;	0,0;	0,0
482,0658264160156;	260,5;	0,0;	0,0
482,1033935546875;	260,0;	0,0;	0,0
482,1408996582031;	255,5;	0,0;	0,0
482,178466796875;	262,5;	0,0;	0,0
482,2159729003906;	253,75;	0,0;	0,0
482,2534484863281;	272,25;	0,0;	0,0
482,29095458984375;	281,0;	0,0;	0,0
482,3284606933594;	288,75;	0,0;	0,0
482,36590576171875;	281,25;	0,0;	0,0
482,40338134765625;	270,25;	0,0;	0,0
482,4408264160156;	266,0;	0,0;	0,0
482,478271484375;	229,0;	0,0;	0,0
482,5157165527344;	263,25;	0,0;	0,0
482,5531005859375;	286,5;	0,0;	0,0
482,59051513671875;	259,0;	0,0;	0,0
482,6278991699219;	247,5;	0,0;	0,0
482,6652526855469;	255,0;	0,0;	0,0
482,7026062011719;	252,0;	0,0;	0,0
482,739990234375;	252,25;	0,0;	0,0
482,77728271484375;	244,5;	0,0;	0,0
482,81463623046875;	254,75;	0,0;	0,0
482,8519287109375;	238,0;	0,0;	0,0
482,8892517089844;	237,0;	0,0;	0,0
482,926513671875;	260,5;	0,0;	0,0
482,96380615234375;	256,75;	0,0;	0,0
483,00103759765625;	254,75;	0,0;	0,0
483,038330078125;	254,0;	0,0;	0,0
483,0755310058594;	265,0;	0,0;	0,0
483,1127624511719;	260,25;	0,0;	0,0
483,14996337890625;	259,75;	0,0;	0,0
483,1871643066406;	265,75;	0,0;	0,0
483,2243347167969;	273,5;	0,0;	0,0
483,26153564453125;	243,0;	0,0;	0,0
483,2986755371094;	247,5;	0,0;	0,0
483,3358154296875;	253,75;	0,0;	0,0
483,3729553222656;	248,25;	0,0;	0,0
483,41009521484375;	256,75;	0,0;	0,0
483,44720458984375;	263,0;	0,0;	0,0
483,48431396484375;	274,25;	0,0;	0,0
483,5213928222656;	258,75;	0,0;	0,0
483,5584716796875;	258,0;	0,0;	0,0
483,59552001953125;	256,25;	0,0;	0,0
483,6325988769531;	260,0;	0,0;	0,0
483,66961669921875;	253,5;	0,0;	0,0
483,7066650390625;	268,25;	0,0;	0,0
483,7436828613281;	259,5;	0,0;	0,0
483,7806396484375;	277,0;	0,0;	0,0
483,8176574707031;	255,0;	0,0;	0,0
483,8546142578125;	252,25;	0,0;	0,0
483,8916015625;	276,0;	0,0;	0,0
483,92852783203125;	281,25;	0,0;	0,0
483,9654541015625;	293,0;	0,0;	0,0
484,00238037109375;	263,0;	0,0;	0,0
484,0392761230469;	262,0;	0,0;	0,0
484,0762023925781;	258,0;	0,0;	0,0
484,1130676269531;	272,5;	0,0;	0,0
484,14996337890625;	257,5;	0,0;	0,0
484,1867980957031;	278,5;	0,0;	0,0
484,22369384765625;	264,5;	0,0;	0,0
484,260498046875;	274,0;	0,0;	0,0
484,2973327636719;	278,75;	0,0;	0,0
484,33416748046875;	275,75;	0,0;	0,0
484,3709716796875;	259,75;	0,0;	0,0
484,4077453613281;	250,75;	0,0;	0,0
484,44451904296875;	254,0;	0,0;	0,0
484,4812927246094;	275,25;	0,0;	0,0
484,5180358886719;	262,75;	0,0;	0,0
484,5547790527344;	272,25;	0,0;	0,0
484,59149169921875;	252,25;	0,0;	0,0
484,628173828125;	254,5;	0,0;	0,0
484,6649169921875;	260,0;	0,0;	0,0
484,7015686035156;	261,75;	0,0;	0,0
484,7383117675781;	265,5;	0,0;	0,0
484,77490234375;	263,5;	0,0;	0,0
484,8116149902344;	272,75;	0,0;	0,0
484,84820556640625;	275,5;	0,0;	0,0
484,8848571777344;	275,75;	0,0;	0,0
484,92144775390625;	270,25;	0,0;	0,0
484,9580383300781;	267,25;	0,0;	0,0
484,9946594238281;	253,25;	0,0;	0,0
485,03125;	255,75;	0,0;	0,0
485,06781005859375;	269,25;	0,0;	0,0
485,1043395996094;	268,5;	0,0;	0,0
485,140869140625;	264,5;	0,0;	0,0
485,1773986816406;	260,0;	0,0;	0,0
485,2138977050781;	243,75;	0,0;	0,0
485,25042724609375;	248,0;	0,0;	0,0
485,2868957519531;	251,25;	0,0;	0,0
485,3233947753906;	253,75;	0,0;	0,0
485,35986328125;	264,5;	0,0;	0,0
485,39630126953125;	248,75;	0,0;	0,0
485,4327392578125;	265,5;	0,0;	0,0
485,46917724609375;	254,5;	0,0;	0,0
485,5055847167969;	255,25;	0,0;	0,0
485,54193115234375;	298,75;	0,0;	0,0
485,578369140625;	280,25;	0,0;	0,0
485,61474609375;	276,75;	0,0;	0,0
485,651123046875;	272,75;	0,0;	0,0
485,68743896484375;	283,5;	0,0;	0,0
485,7237854003906;	288,25;	0,0;	0,0
485,7601013183594;	302,0;	0,0;	0,0
485,7964172363281;	328,25;	0,0;	0,0
485,83270263671875;	322,25;	0,0;	0,0
485,8690185546875;	327,75;	0,0;	0,0
485,9053039550781;	334,0;	0,0;	0,0
485,9415588378906;	358,5;	0,0;	0,0
485,977783203125;	413,5;	0,0;	0,0
486,0140380859375;	346,5;	0,0;	0,0
486,0502624511719;	306,25;	0,0;	0,0
486,0864562988281;	254,5;	0,0;	0,0
486,1226806640625;	275,75;	0,0;	0,0
486,15887451171875;	287,25;	0,0;	0,0
486,1950378417969;	251,25;	0,0;	0,0
486,231201171875;	260,5;	0,0;	0,0
486,2673645019531;	257,75;	0,0;	0,0
486,3034973144531;	257,25;	0,0;	0,0
486,3396301269531;	252,5;	0,0;	0,0
486,3757019042969;	273,0;	0,0;	0,0
486,4118347167969;	268,25;	0,0;	0,0
486,4479064941406;	259,75;	0,0;	0,0
486,4840087890625;	255,0;	0,0;	0,0
486,52001953125;	267,25;	0,0;	0,0
486,55609130859375;	280,0;	0,0;	0,0
486,59210205078125;	258,0;	0,0;	0,0
486,6281433105469;	269,75;	0,0;	0,0
486,6641540527344;	279,0;	0,0;	0,0
486,7001647949219;	259,5;	0,0;	0,0
486,7361755371094;	262,0;	0,0;	0,0
486,7721252441406;	272,5;	0,0;	0,0
486,80810546875;	281,25;	0,0;	0,0
486,8440246582031;	281,0;	0,0;	0,0
486,8799743652344;	315,75;	0,0;	0,0
486,9158935546875;	370,5;	0,0;	0,0
486,9518127441406;	388,75;	0,0;	0,0
486,98773193359375;	417,0;	0,0;	0,0
487,0235900878906;	439,5;	0,0;	0,0
487,0594787597656;	488,25;	0,0;	0,0
487,0953369140625;	557,75;	0,0;	0,0
487,1311950683594;	734,75;	0,0;	0,0
487,1670227050781;	622,0;	0,0;	0,0
487,20281982421875;	517,75;	0,0;	0,0
487,2386474609375;	510,5;	0,0;	0,0
487,2744140625;	340,75;	0,0;	0,0
487,31024169921875;	296,75;	0,0;	0,0
487,3459777832031;	244,0;	0,0;	0,0
487,38177490234375;	287,75;	0,0;	0,0
487,41748046875;	278,25;	0,0;	0,0
487,4532470703125;	271,75;	0,0;	0,0
487,48895263671875;	260,25;	0,0;	0,0
487,524658203125;	252,0;	0,0;	0,0
487,56036376953125;	269,25;	0,0;	0,0
487,5960693359375;	282,0;	0,0;	0,0
487,6317138671875;	297,75;	0,0;	0,0
487,6673889160156;	289,5;	0,0;	0,0
487,7030029296875;	321,0;	0,0;	0,0
487,7386474609375;	322,0;	0,0;	0,0
487,7742919921875;	294,0;	0,0;	0,0
487,8099060058594;	373,75;	0,0;	0,0
487,84552001953125;	396,25;	0,0;	0,0
487,8810729980469;	311,0;	0,0;	0,0
487,9166564941406;	286,5;	0,0;	0,0
487,95220947265625;	267,5;	0,0;	0,0
487,9877624511719;	273,75;	0,0;	0,0
488,0232849121094;	257,5;	0,0;	0,0
488,0588073730469;	256,0;	0,0;	0,0
488,09429931640625;	281,75;	0,0;	0,0
488,12982177734375;	277,25;	0,0;	0,0
488,165283203125;	269,75;	0,0;	0,0
488,2007751464844;	276,25;	0,0;	0,0
488,2362060546875;	251,0;	0,0;	0,0
488,27166748046875;	239,25;	0,0;	0,0
488,30706787109375;	253,5;	0,0;	0,0
488,3424987792969;	256,25;	0,0;	0,0
488,3779296875;	251,5;	0,0;	0,0
488,4132995605469;	260,0;	0,0;	0,0
488,4486999511719;	270,0;	0,0;	0,0
488,48406982421875;	255,75;	0,0;	0,0
488,5194091796875;	270,0;	0,0;	0,0
488,55474853515625;	285,25;	0,0;	0,0
488,590087890625;	291,0;	0,0;	0,0
488,62542724609375;	289,5;	0,0;	0,0
488,66070556640625;	271,75;	0,0;	0,0
488,69598388671875;	298,5;	0,0;	0,0
488,7312927246094;	267,0;	0,0;	0,0
488,7665710449219;	297,0;	0,0;	0,0
488,80181884765625;	323,75;	0,0;	0,0
488,8370666503906;	355,25;	0,0;	0,0
488,8722839355469;	418,75;	0,0;	0,0
488,907470703125;	471,0;	0,0;	0,0
488,94268798828125;	497,0;	0,0;	0,0
488,9778747558594;	557,25;	0,0;	0,0
489,0130615234375;	597,5;	0,0;	0,0
489,0482177734375;	713,25;	0,0;	0,0
489,0834045410156;	812,0;	0,0;	0,0
489,1184997558594;	791,5;	0,0;	0,0
489,15362548828125;	912,0;	0,0;	0,0
489,1887512207031;	657,25;	0,0;	0,0
489,2238464355469;	333,5;	0,0;	0,0
489,2589416503906;	270,5;	0,0;	0,0
489,2940368652344;	306,75;	0,0;	0,0
489,3290710449219;	269,5;	0,0;	0,0
489,3641662597656;	253,0;	0,0;	0,0
489,399169921875;	256,25;	0,0;	0,0
489,4342346191406;	252,25;	0,0;	0,0
489,46923828125;	258,25;	0,0;	0,0
489,5042419433594;	253,25;	0,0;	0,0
489,5392150878906;	240,0;	0,0;	0,0
489,57421875;	246,5;	0,0;	0,0
489,6091613769531;	253,5;	0,0;	0,0
489,6441345214844;	248,0;	0,0;	0,0
489,6790466308594;	256,0;	0,0;	0,0
489,7139892578125;	255,5;	0,0;	0,0
489,7489013671875;	249,25;	0,0;	0,0
489,78375244140625;	244,25;	0,0;	0,0
489,8186950683594;	263,5;	0,0;	0,0
489,8535461425781;	242,5;	0,0;	0,0
489,888427734375;	247,75;	0,0;	0,0
489,9232482910156;	250,5;	0,0;	0,0
489,9580993652344;	244,5;	0,0;	0,0
489,9928894042969;	262,75;	0,0;	0,0
490,0277099609375;	249,25;	0,0;	0,0
490,0625305175781;	259,25;	0,0;	0,0
490,0972900390625;	267,75;	0,0;	0,0
490,132080078125;	268,25;	0,0;	0,0
490,1668395996094;	259,25;	0,0;	0,0
490,20159912109375;	279,0;	0,0;	0,0
490,236328125;	290,5;	0,0;	0,0
490,27105712890625;	288,75;	0,0;	0,0
490,3057556152344;	307,5;	0,0;	0,0
490,3404541015625;	318,0;	0,0;	0,0
490,3751525878906;	281,0;	0,0;	0,0
490,4097900390625;	272,75;	0,0;	0,0
490,4444580078125;	263,25;	0,0;	0,0
490,4790954589844;	238,75;	0,0;	0,0
490,51373291015625;	260,5;	0,0;	0,0
490,5483703613281;	243,5;	0,0;	0,0
490,58294677734375;	248,75;	0,0;	0,0
490,6175842285156;	237,0;	0,0;	0,0
490,652099609375;	243,25;	0,0;	0,0
490,68670654296875;	239,75;	0,0;	0,0
490,72125244140625;	258,75;	0,0;	0,0
490,75579833984375;	253,75;	0,0;	0,0
490,79034423828125;	252,0;	0,0;	0,0
490,8248291015625;	280,0;	0,0;	0,0
490,8593444824219;	271,75;	0,0;	0,0
490,89385986328125;	259,75;	0,0;	0,0
490,9283447265625;	289,75;	0,0;	0,0
490,9627685546875;	256,0;	0,0;	0,0
490,99725341796875;	281,0;	0,0;	0,0
491,03167724609375;	286,25;	0,0;	0,0
491,0661315917969;	273,25;	0,0;	0,0
491,10052490234375;	255,25;	0,0;	0,0
491,13494873046875;	257,0;	0,0;	0,0
491,1693115234375;	238,5;	0,0;	0,0
491,2037048339844;	256,5;	0,0;	0,0
491,238037109375;	250,0;	0,0;	0,0
491,2724304199219;	276,5;	0,0;	0,0
491,3067321777344;	265,0;	0,0;	0,0
491,3410949707031;	272,75;	0,0;	0,0
491,3753967285156;	273,25;	0,0;	0,0
491,4096984863281;	256,0;	0,0;	0,0
491,4439697265625;	248,75;	0,0;	0,0
491,478271484375;	262,0;	0,0;	0,0
491,51251220703125;	249,25;	0,0;	0,0
491,5467834472656;	250,0;	0,0;	0,0
491,58099365234375;	286,0;	0,0;	0,0
491,6152648925781;	260,75;	0,0;	0,0
491,6494445800781;	321,0;	0,0;	0,0
491,6836853027344;	342,0;	0,0;	0,0
491,71783447265625;	384,0;	0,0;	0,0
491,75201416015625;	393,0;	0,0;	0,0
491,7861633300781;	461,25;	0,0;	0,0
491,8203430175781;	549,5;	0,0;	0,0
491,85443115234375;	594,5;	0,0;	0,0
491,8885498046875;	739,5;	0,0;	0,0
491,9226989746094;	766,0;	0,0;	0,0
491,9568176269531;	678,0;	0,0;	0,0
491,9908752441406;	677,75;	0,0;	0,0
492,02490234375;	791,75;	0,0;	0,0
492,0589904785156;	1040,25;	0,0;	0,0
492,093017578125;	859,0;	0,0;	0,0
492,1270751953125;	408,0;	0,0;	0,0
492,1610412597656;	299,75;	0,0;	0,0
492,1950988769531;	305,75;	0,0;	0,0
492,22906494140625;	300,5;	0,0;	0,0
492,2630615234375;	292,5;	0,0;	0,0
492,2969970703125;	282,0;	0,0;	0,0
492,33099365234375;	283,75;	0,0;	0,0
492,36492919921875;	287,25;	0,0;	0,0
492,39886474609375;	311,75;	0,0;	0,0
492,4327697753906;	290,75;	0,0;	0,0
492,4666748046875;	256,0;	0,0;	0,0
492,5005798339844;	262,75;	0,0;	0,0
492,5344543457031;	253,5;	0,0;	0,0
492,56829833984375;	248,25;	0,0;	0,0
492,60211181640625;	239,25;	0,0;	0,0
492,635986328125;	247,0;	0,0;	0,0
492,66986083984375;	256,25;	0,0;	0,0
492,7036437988281;	254,25;	0,0;	0,0
492,7373962402344;	239,5;	0,0;	0,0
492,771240234375;	253,0;	0,0;	0,0
492,8049621582031;	250,5;	0,0;	0,0
492,8387451171875;	236,0;	0,0;	0,0
492,87249755859375;	246,0;	0,0;	0,0
492,90625;	253,25;	0,0;	0,0
492,93994140625;	244,0;	0,0;	0,0
492,97369384765625;	241,25;	0,0;	0,0
493,00738525390625;	268,5;	0,0;	0,0
493,04107666015625;	248,0;	0,0;	0,0
493,0747375488281;	269,5;	0,0;	0,0
493,1083984375;	251,0;	0,0;	0,0
493,14202880859375;	241,0;	0,0;	0,0
493,1756896972656;	275,75;	0,0;	0,0
493,20928955078125;	272,5;	0,0;	0,0
493,242919921875;	253,75;	0,0;	0,0
493,2764892578125;	267,5;	0,0;	0,0
493,31011962890625;	298,5;	0,0;	0,0
493,3436584472656;	292,25;	0,0;	0,0
493,3772277832031;	295,25;	0,0;	0,0
493,4107360839844;	308,75;	0,0;	0,0
493,4442443847656;	300,75;	0,0;	0,0
493,4778137207031;	263,25;	0,0;	0,0
493,5113525390625;	246,5;	0,0;	0,0
493,5447998046875;	256,0;	0,0;	0,0
493,5782470703125;	251,25;	0,0;	0,0
493,61175537109375;	255,75;	0,0;	0,0
493,6451721191406;	0,0;	0,0;	0,0
