0.0	1.0
Integration time [ms]:	1.05
Averaging Nr. [scans]:1
Smoothing Nr. [pixels]:0
Data measured with spectrometer [name]:b'1703277U8'
Wave	;Sample	;Dark	;Reference	;Scope	
[nm]	;[counts]	;[counts]	;[counts]	
 
493,2108154296875;	465,5;	0,0;	0,0
493,2895202636719;	457,5;	0,0;	0,0
493,36822509765625;	354,0;	0,0;	0,0
493,4468994140625;	313,0;	0,0;	0,0
493,52557373046875;	324,0;	0,0;	0,0
493,6042175292969;	375,75;	0,0;	0,0
493,6828918457031;	491,75;	0,0;	0,0
493,7615051269531;	505,0;	0,0;	0,0
493,8401184082031;	383,5;	0,0;	0,0
493,9187316894531;	326,0;	0,0;	0,0
493,9973449707031;	315,25;	0,0;	0,0
494,075927734375;	320,25;	0,0;	0,0
494,1545104980469;	301,5;	0,0;	0,0
494,2330627441406;	302,25;	0,0;	0,0
494,3116149902344;	318,0;	0,0;	0,0
494,3901672363281;	332,0;	0,0;	0,0
494,4686584472656;	412,5;	0,0;	0,0
494,5472106933594;	393,75;	0,0;	0,0
494,6257019042969;	318,5;	0,0;	0,0
494,7041931152344;	332,0;	0,0;	0,0
494,78265380859375;	326,5;	0,0;	0,0
494,86114501953125;	356,75;	0,0;	0,0
494,9395751953125;	355,25;	0,0;	0,0
495,0180358886719;	321,25;	0,0;	0,0
495,096435546875;	360,5;	0,0;	0,0
495,1748962402344;	370,25;	0,0;	0,0
495,2532653808594;	372,25;	0,0;	0,0
495,3316650390625;	428,0;	0,0;	0,0
495,4100341796875;	620,0;	0,0;	0,0
495,4884338378906;	1581,75;	0,0;	0,0
495,5667724609375;	4642,5;	0,0;	0,0
495,6451110839844;	4984,0;	0,0;	0,0
495,72344970703125;	1150,5;	0,0;	0,0
495,8017883300781;	513,0;	0,0;	0,0
495,8800964355469;	398,25;	0,0;	0,0
495,9583435058594;	343,75;	0,0;	0,0
496,0366516113281;	371,5;	0,0;	0,0
496,11492919921875;	354,25;	0,0;	0,0
496,19317626953125;	352,0;	0,0;	0,0
496,27142333984375;	367,0;	0,0;	0,0
496,34967041015625;	395,25;	0,0;	0,0
496,4278869628906;	552,25;	0,0;	0,0
496,506103515625;	512,5;	0,0;	0,0
496,58428955078125;	420,5;	0,0;	0,0
496,6625061035156;	410,5;	0,0;	0,0
496,74066162109375;	389,0;	0,0;	0,0
496,8188171386719;	411,5;	0,0;	0,0
496,89697265625;	432,75;	0,0;	0,0
496,9751281738281;	360,75;	0,0;	0,0
497,0532531738281;	378,25;	0,0;	0,0
497,1313171386719;	440,5;	0,0;	0,0
497,2094421386719;	409,25;	0,0;	0,0
497,28753662109375;	362,25;	0,0;	0,0
497,3656005859375;	331,75;	0,0;	0,0
497,44366455078125;	356,5;	0,0;	0,0
497,521728515625;	391,25;	0,0;	0,0
497,59979248046875;	402,5;	0,0;	0,0
497,67779541015625;	429,5;	0,0;	0,0
497,7558288574219;	425,25;	0,0;	0,0
497,83380126953125;	432,75;	0,0;	0,0
497,91180419921875;	446,0;	0,0;	0,0
497,9897766113281;	519,25;	0,0;	0,0
498,0677490234375;	794,75;	0,0;	0,0
498,1457214355469;	997,5;	0,0;	0,0
498,2236633300781;	891,25;	0,0;	0,0
498,30157470703125;	761,0;	0,0;	0,0
498,3794860839844;	779,0;	0,0;	0,0
498,4573974609375;	603,25;	0,0;	0,0
498,5353088378906;	410,75;	0,0;	0,0
498,6131896972656;	403,5;	0,0;	0,0
498,6910705566406;	410,0;	0,0;	0,0
498,7688903808594;	426,0;	0,0;	0,0
498,84674072265625;	422,5;	0,0;	0,0
498,924560546875;	444,25;	0,0;	0,0
499,0024108886719;	424,75;	0,0;	0,0
499,0802307128906;	382,5;	0,0;	0,0
499,1579895019531;	406,0;	0,0;	0,0
499,23577880859375;	444,75;	0,0;	0,0
499,3135681152344;	416,5;	0,0;	0,0
499,3913269042969;	327,75;	0,0;	0,0
499,4690856933594;	334,75;	0,0;	0,0
499,5467834472656;	356,5;	0,0;	0,0
499,6245422363281;	355,25;	0,0;	0,0
499,7022399902344;	344,75;	0,0;	0,0
499,7799377441406;	375,75;	0,0;	0,0
499,8576354980469;	401,25;	0,0;	0,0
499,935302734375;	527,75;	0,0;	0,0
500,0129699707031;	868,0;	0,0;	0,0
500,090576171875;	805,25;	0,0;	0,0
500,1682434082031;	468,75;	0,0;	0,0
500,2458801269531;	447,0;	0,0;	0,0
500,323486328125;	611,25;	0,0;	0,0
500,40106201171875;	1199,5;	0,0;	0,0
500,47869873046875;	1413,0;	0,0;	0,0
500,5562744140625;	661,75;	0,0;	0,0
500,6337890625;	519,5;	0,0;	0,0
500,71136474609375;	406,0;	0,0;	0,0
500,7889099121094;	382,75;	0,0;	0,0
500,8664245605469;	374,5;	0,0;	0,0
500,9439392089844;	435,75;	0,0;	0,0
501,02142333984375;	727,75;	0,0;	0,0
501,09893798828125;	699,0;	0,0;	0,0
501,1764221191406;	442,75;	0,0;	0,0
501,25384521484375;	514,75;	0,0;	0,0
501,33135986328125;	698,25;	0,0;	0,0
501,40875244140625;	550,75;	0,0;	0,0
501,4862060546875;	398,5;	0,0;	0,0
501,5636291503906;	441,75;	0,0;	0,0
501,6410217285156;	601,75;	0,0;	0,0
501,7184143066406;	627,0;	0,0;	0,0
501,7957763671875;	392,75;	0,0;	0,0
501,8731384277344;	366,75;	0,0;	0,0
501,95050048828125;	406,75;	0,0;	0,0
502,0278625488281;	509,75;	0,0;	0,0
502,10516357421875;	542,5;	0,0;	0,0
502,1824951171875;	421,75;	0,0;	0,0
502,2597961425781;	351,25;	0,0;	0,0
502,33709716796875;	378,75;	0,0;	0,0
502,41436767578125;	379,75;	0,0;	0,0
502,4916687011719;	451,75;	0,0;	0,0
502,56890869140625;	520,75;	0,0;	0,0
502,6461486816406;	501,0;	0,0;	0,0
502,7233581542969;	439,75;	0,0;	0,0
502,8006286621094;	367,25;	0,0;	0,0
502,8778076171875;	363,75;	0,0;	0,0
502,9549865722656;	375,75;	0,0;	0,0
503,03216552734375;	347,5;	0,0;	0,0
503,1093444824219;	339,75;	0,0;	0,0
503,1865234375;	332,5;	0,0;	0,0
503,2636413574219;	348,25;	0,0;	0,0
503,34075927734375;	339,75;	0,0;	0,0
503,41790771484375;	337,25;	0,0;	0,0
503,4949951171875;	361,75;	0,0;	0,0
503,57208251953125;	354,75;	0,0;	0,0
503,6492004394531;	362,0;	0,0;	0,0
503,72625732421875;	375,75;	0,0;	0,0
503,8033142089844;	466,5;	0,0;	0,0
503,88037109375;	527,75;	0,0;	0,0
503,9573974609375;	763,25;	0,0;	0,0
504,034423828125;	749,5;	0,0;	0,0
504,1114196777344;	443,75;	0,0;	0,0
504,18841552734375;	363,25;	0,0;	0,0
504,2654113769531;	405,75;	0,0;	0,0
504,3423767089844;	348,0;	0,0;	0,0
504,4193115234375;	343,75;	0,0;	0,0
504,49627685546875;	325,25;	0,0;	0,0
504,5732421875;	327,0;	0,0;	0,0
504,650146484375;	397,75;	0,0;	0,0
504,7270202636719;	501,0;	0,0;	0,0
504,8039245605469;	803,75;	0,0;	0,0
504,880859375;	687,5;	0,0;	0,0
504,95770263671875;	499,0;	0,0;	0,0
505,0345458984375;	561,75;	0,0;	0,0
505,1114196777344;	379,0;	0,0;	0,0
505,1882629394531;	358,25;	0,0;	0,0
505,2650451660156;	336,75;	0,0;	0,0
505,34185791015625;	341,5;	0,0;	0,0
505,4186706542969;	322,75;	0,0;	0,0
505,4954528808594;	341,5;	0,0;	0,0
505,57220458984375;	312,0;	0,0;	0,0
505,6489562988281;	310,25;	0,0;	0,0
505,72576904296875;	304,75;	0,0;	0,0
505,802490234375;	349,75;	0,0;	0,0
505,87921142578125;	331,75;	0,0;	0,0
505,9559020996094;	315,5;	0,0;	0,0
506,0326232910156;	338,0;	0,0;	0,0
506,1092834472656;	344,25;	0,0;	0,0
506,1859436035156;	365,25;	0,0;	0,0
506,2626037597656;	465,75;	0,0;	0,0
506,3392639160156;	552,75;	0,0;	0,0
506,4159240722656;	473,5;	0,0;	0,0
506,4925231933594;	385,0;	0,0;	0,0
506,56915283203125;	395,5;	0,0;	0,0
506,645751953125;	473,75;	0,0;	0,0
506,72235107421875;	551,75;	0,0;	0,0
506,7989196777344;	486,25;	0,0;	0,0
506,8754577636719;	365,5;	0,0;	0,0
506,9520263671875;	385,75;	0,0;	0,0
507,028564453125;	432,25;	0,0;	0,0
507,1050720214844;	424,25;	0,0;	0,0
507,1816101074219;	482,5;	0,0;	0,0
507,2580871582031;	519,25;	0,0;	0,0
507,3345642089844;	593,25;	0,0;	0,0
507,4110412597656;	457,5;	0,0;	0,0
507,487548828125;	408,0;	0,0;	0,0
507,56396484375;	381,25;	0,0;	0,0
507,640380859375;	407,5;	0,0;	0,0
507,71685791015625;	559,0;	0,0;	0,0
507,7932434082031;	600,25;	0,0;	0,0
507,86962890625;	436,0;	0,0;	0,0
507,9460144042969;	358,0;	0,0;	0,0
508,02239990234375;	354,25;	0,0;	0,0
508,0987548828125;	400,0;	0,0;	0,0
508,17510986328125;	489,0;	0,0;	0,0
508,2514343261719;	399,5;	0,0;	0,0
508,3277893066406;	332,5;	0,0;	0,0
508,4040832519531;	329,0;	0,0;	0,0
508,4803771972656;	315,0;	0,0;	0,0
508,556640625;	330,5;	0,0;	0,0
508,6329650878906;	331,75;	0,0;	0,0
508,7091979980469;	331,75;	0,0;	0,0
508,78546142578125;	341,0;	0,0;	0,0
508,8616943359375;	399,5;	0,0;	0,0
508,93792724609375;	417,75;	0,0;	0,0
509,0141296386719;	375,75;	0,0;	0,0
509,09033203125;	360,75;	0,0;	0,0
509,1665344238281;	326,5;	0,0;	0,0
509,24267578125;	323,75;	0,0;	0,0
509,31884765625;	334,75;	0,0;	0,0
509,3949890136719;	348,75;	0,0;	0,0
509,4711608886719;	399,75;	0,0;	0,0
509,5472717285156;	458,25;	0,0;	0,0
509,62335205078125;	447,75;	0,0;	0,0
509,699462890625;	567,75;	0,0;	0,0
509,77557373046875;	532,75;	0,0;	0,0
509,85162353515625;	366,75;	0,0;	0,0
509,92767333984375;	329,0;	0,0;	0,0
510,00372314453125;	363,25;	0,0;	0,0
510,0798034667969;	355,75;	0,0;	0,0
510,15582275390625;	340,25;	0,0;	0,0
510,2318115234375;	330,75;	0,0;	0,0
510,3078308105469;	418,0;	0,0;	0,0
510,3837890625;	498,0;	0,0;	0,0
510,45977783203125;	465,25;	0,0;	0,0
510,5357360839844;	475,5;	0,0;	0,0
510,6116943359375;	609,75;	0,0;	0,0
510,6876220703125;	437,0;	0,0;	0,0
510,7635498046875;	409,5;	0,0;	0,0
510,8394470214844;	503,5;	0,0;	0,0
510,9153747558594;	570,75;	0,0;	0,0
510,9912414550781;	337,75;	0,0;	0,0
511,0671081542969;	345,5;	0,0;	0,0
511,1429443359375;	313,75;	0,0;	0,0
511,2188415527344;	336,25;	0,0;	0,0
511,2946472167969;	336,75;	0,0;	0,0
511,3704833984375;	314,75;	0,0;	0,0
511,4462890625;	325,25;	0,0;	0,0
511,5220947265625;	346,75;	0,0;	0,0
511,59783935546875;	343,0;	0,0;	0,0
511,6736145019531;	316,25;	0,0;	0,0
511,7494201660156;	322,75;	0,0;	0,0
511,82513427734375;	326,5;	0,0;	0,0
511,90087890625;	319,25;	0,0;	0,0
511,97662353515625;	392,0;	0,0;	0,0
512,0523071289062;	362,5;	0,0;	0,0
512,1280517578125;	367,25;	0,0;	0,0
512,2036743164062;	473,25;	0,0;	0,0
512,2793579101562;	482,0;	0,0;	0,0
512,3550415039062;	530,5;	0,0;	0,0
512,4306640625;	495,75;	0,0;	0,0
512,5062866210938;	444,5;	0,0;	0,0
512,5819702148438;	443,0;	0,0;	0,0
512,657470703125;	414,5;	0,0;	0,0
512,7330932617188;	369,75;	0,0;	0,0
512,8087158203125;	362,75;	0,0;	0,0
512,88427734375;	373,25;	0,0;	0,0
512,9598999023438;	425,5;	0,0;	0,0
513,035400390625;	485,75;	0,0;	0,0
513,1109008789062;	598,75;	0,0;	0,0
513,1864624023438;	802,75;	0,0;	0,0
513,2619018554688;	711,0;	0,0;	0,0
513,33740234375;	445,75;	0,0;	0,0
513,4129638671875;	381,75;	0,0;	0,0
513,4884033203125;	474,25;	0,0;	0,0
513,5638427734375;	564,75;	0,0;	0,0
513,6392822265625;	641,0;	0,0;	0,0
513,7147216796875;	1036,75;	0,0;	0,0
513,7901000976562;	1600,75;	0,0;	0,0
513,8655395507812;	991,5;	0,0;	0,0
513,94091796875;	449,25;	0,0;	0,0
514,0162963867188;	478,0;	0,0;	0,0
514,0916748046875;	549,25;	0,0;	0,0
514,1669921875;	501,25;	0,0;	0,0
514,2423706054688;	409,25;	0,0;	0,0
514,3176879882812;	346,5;	0,0;	0,0
514,3930053710938;	358,5;	0,0;	0,0
514,4683837890625;	343,0;	0,0;	0,0
514,5435791015625;	364,0;	0,0;	0,0
514,618896484375;	452,5;	0,0;	0,0
514,694091796875;	485,75;	0,0;	0,0
514,7694091796875;	427,25;	0,0;	0,0
514,8446655273438;	409,5;	0,0;	0,0
514,9198608398438;	480,0;	0,0;	0,0
514,9950561523438;	451,75;	0,0;	0,0
515,0703125;	436,75;	0,0;	0,0
515,1454467773438;	451,5;	0,0;	0,0
515,220703125;	424,75;	0,0;	0,0
515,2957763671875;	398,0;	0,0;	0,0
515,3709716796875;	375,25;	0,0;	0,0
515,4461059570312;	350,75;	0,0;	0,0
515,521240234375;	380,25;	0,0;	0,0
515,5963745117188;	360,25;	0,0;	0,0
515,6714477539062;	382,0;	0,0;	0,0
515,7465209960938;	377,0;	0,0;	0,0
515,8215942382812;	361,75;	0,0;	0,0
515,896728515625;	388,5;	0,0;	0,0
515,9717407226562;	468,0;	0,0;	0,0
516,0467529296875;	591,0;	0,0;	0,0
516,121826171875;	634,5;	0,0;	0,0
516,1968383789062;	527,25;	0,0;	0,0
516,2717895507812;	476,75;	0,0;	0,0
516,3468017578125;	527,0;	0,0;	0,0
516,4217529296875;	652,5;	0,0;	0,0
516,4967651367188;	1219,75;	0,0;	0,0
516,5716552734375;	2645,0;	0,0;	0,0
516,6466674804688;	2299,25;	0,0;	0,0
516,7215576171875;	955,5;	0,0;	0,0
516,7964477539062;	773,25;	0,0;	0,0
516,871337890625;	518,75;	0,0;	0,0
516,9461669921875;	790,0;	0,0;	0,0
517,0211181640625;	1093,0;	0,0;	0,0
517,0960083007812;	732,75;	0,0;	0,0
517,1707763671875;	473,5;	0,0;	0,0
517,24560546875;	354,75;	0,0;	0,0
517,3204345703125;	349,0;	0,0;	0,0
517,3952026367188;	336,5;	0,0;	0,0
517,4700927734375;	339,25;	0,0;	0,0
517,5448608398438;	346,25;	0,0;	0,0
517,61962890625;	360,75;	0,0;	0,0
517,6943969726562;	324,0;	0,0;	0,0
517,7691040039062;	358,75;	0,0;	0,0
517,8438110351562;	366,5;	0,0;	0,0
517,9185791015625;	378,0;	0,0;	0,0
517,9932250976562;	375,25;	0,0;	0,0
518,0679321289062;	396,0;	0,0;	0,0
518,1426391601562;	494,75;	0,0;	0,0
518,21728515625;	597,75;	0,0;	0,0
518,2919311523438;	504,0;	0,0;	0,0
518,3665771484375;	374,5;	0,0;	0,0
518,4412231445312;	346,5;	0,0;	0,0
518,515869140625;	350,25;	0,0;	0,0
518,5903930664062;	362,25;	0,0;	0,0
518,6650390625;	406,5;	0,0;	0,0
518,7396240234375;	429,75;	0,0;	0,0
518,8141479492188;	426,25;	0,0;	0,0
518,8887329101562;	523,0;	0,0;	0,0
518,9631958007812;	1017,0;	0,0;	0,0
519,0377807617188;	1393,75;	0,0;	0,0
519,1123046875;	1285,25;	0,0;	0,0
519,186767578125;	672,5;	0,0;	0,0
519,2612915039062;	516,5;	0,0;	0,0
519,3358154296875;	807,5;	0,0;	0,0
519,41015625;	670,25;	0,0;	0,0
519,4846801757812;	461,5;	0,0;	0,0
519,5591430664062;	396,75;	0,0;	0,0
519,633544921875;	383,25;	0,0;	0,0
519,7080078125;	435,25;	0,0;	0,0
519,7822875976562;	369,0;	0,0;	0,0
519,856689453125;	377,25;	0,0;	0,0
519,93115234375;	358,75;	0,0;	0,0
520,0054321289062;	465,5;	0,0;	0,0
520,0797729492188;	556,5;	0,0;	0,0
520,1541748046875;	461,5;	0,0;	0,0
520,2283935546875;	379,0;	0,0;	0,0
520,302734375;	457,75;	0,0;	0,0
520,3770751953125;	441,25;	0,0;	0,0
520,4512939453125;	448,75;	0,0;	0,0
520,525634765625;	410,25;	0,0;	0,0
520,5997924804688;	427,0;	0,0;	0,0
520,674072265625;	664,25;	0,0;	0,0
520,7483520507812;	633,5;	0,0;	0,0
520,822509765625;	396,25;	0,0;	0,0
520,8967895507812;	321,5;	0,0;	0,0
520,970947265625;	349,0;	0,0;	0,0
521,0451049804688;	327,0;	0,0;	0,0
521,1192626953125;	355,75;	0,0;	0,0
521,1934204101562;	358,5;	0,0;	0,0
521,267578125;	408,75;	0,0;	0,0
521,3417358398438;	550,0;	0,0;	0,0
521,415771484375;	647,0;	0,0;	0,0
521,4898681640625;	693,75;	0,0;	0,0
521,5640258789062;	598,25;	0,0;	0,0
521,6380615234375;	610,25;	0,0;	0,0
521,712158203125;	437,0;	0,0;	0,0
521,7862548828125;	365,5;	0,0;	0,0
521,8602294921875;	362,25;	0,0;	0,0
521,9342651367188;	351,5;	0,0;	0,0
522,0082397460938;	363,0;	0,0;	0,0
522,0822143554688;	381,0;	0,0;	0,0
522,1563110351562;	356,25;	0,0;	0,0
522,230224609375;	350,5;	0,0;	0,0
522,30419921875;	395,25;	0,0;	0,0
522,3781127929688;	516,0;	0,0;	0,0
522,4520874023438;	919,5;	0,0;	0,0
522,5260009765625;	2295,0;	0,0;	0,0
522,599853515625;	2384,25;	0,0;	0,0
522,6737670898438;	804,5;	0,0;	0,0
522,7476806640625;	470,5;	0,0;	0,0
522,821533203125;	549,25;	0,0;	0,0
522,8953857421875;	535,0;	0,0;	0,0
522,96923828125;	530,0;	0,0;	0,0
523,0430297851562;	882,25;	0,0;	0,0
523,1168823242188;	2106,75;	0,0;	0,0
523,190673828125;	2096,5;	0,0;	0,0
523,2644653320312;	749,5;	0,0;	0,0
523,3382568359375;	445,0;	0,0;	0,0
523,4119873046875;	422,0;	0,0;	0,0
523,4857788085938;	368,75;	0,0;	0,0
523,5595703125;	334,25;	0,0;	0,0
523,6332397460938;	336,25;	0,0;	0,0
523,7069702148438;	328,5;	0,0;	0,0
523,7807006835938;	349,0;	0,0;	0,0
523,8543701171875;	349,25;	0,0;	0,0
523,927978515625;	351,5;	0,0;	0,0
524,0016479492188;	371,5;	0,0;	0,0
524,0753173828125;	443,75;	0,0;	0,0
524,14892578125;	419,5;	0,0;	0,0
524,2225341796875;	364,5;	0,0;	0,0
524,2962036132812;	336,75;	0,0;	0,0
524,3698120117188;	345,25;	0,0;	0,0
524,443359375;	358,75;	0,0;	0,0
524,5169067382812;	342,25;	0,0;	0,0
524,5905151367188;	366,25;	0,0;	0,0
524,6640014648438;	331,75;	0,0;	0,0
524,7376098632812;	336,0;	0,0;	0,0
524,8110961914062;	377,25;	0,0;	0,0
524,8845825195312;	435,0;	0,0;	0,0
524,9580688476562;	439,0;	0,0;	0,0
525,0315551757812;	374,25;	0,0;	0,0
525,10498046875;	365,5;	0,0;	0,0
525,178466796875;	394,5;	0,0;	0,0
525,2518920898438;	370,5;	0,0;	0,0
525,3253173828125;	342,5;	0,0;	0,0
525,3987426757812;	369,5;	0,0;	0,0
525,47216796875;	317,75;	0,0;	0,0
525,5455322265625;	330,75;	0,0;	0,0
525,618896484375;	338,25;	0,0;	0,0
525,6922607421875;	344,25;	0,0;	0,0
525,765625;	360,75;	0,0;	0,0
525,8389892578125;	373,75;	0,0;	0,0
525,9122924804688;	416,75;	0,0;	0,0
525,9856567382812;	487,0;	0,0;	0,0
526,0588989257812;	568,5;	0,0;	0,0
526,1322021484375;	604,25;	0,0;	0,0
526,2054443359375;	596,75;	0,0;	0,0
526,2786865234375;	603,75;	0,0;	0,0
526,3519897460938;	697,5;	0,0;	0,0
526,4251098632812;	988,75;	0,0;	0,0
526,4984130859375;	1377,0;	0,0;	0,0
526,5715942382812;	1161,75;	0,0;	0,0
526,644775390625;	913,75;	0,0;	0,0
526,718017578125;	2035,25;	0,0;	0,0
526,7911376953125;	5038,25;	0,0;	0,0
526,8642578125;	4582,0;	0,0;	0,0
526,9374389648438;	1766,75;	0,0;	0,0
527,0105590820312;	556,75;	0,0;	0,0
527,0836791992188;	463,5;	0,0;	0,0
527,15673828125;	545,5;	0,0;	0,0
527,2298583984375;	504,0;	0,0;	0,0
527,3029174804688;	397,25;	0,0;	0,0
527,3760375976562;	412,75;	0,0;	0,0
527,4490356445312;	398,25;	0,0;	0,0
527,5220336914062;	369,25;	0,0;	0,0
527,5950927734375;	359,0;	0,0;	0,0
527,6680908203125;	328,5;	0,0;	0,0
527,7411499023438;	354,25;	0,0;	0,0
527,8140869140625;	389,0;	0,0;	0,0
527,8870849609375;	369,5;	0,0;	0,0
527,9600219726562;	492,0;	0,0;	0,0
528,032958984375;	682,75;	0,0;	0,0
528,1058959960938;	667,0;	0,0;	0,0
528,1788330078125;	806,5;	0,0;	0,0
528,251708984375;	797,75;	0,0;	0,0
528,3245849609375;	501,5;	0,0;	0,0
528,3974609375;	367,25;	0,0;	0,0
528,4703369140625;	343,0;	0,0;	0,0
528,543212890625;	343,25;	0,0;	0,0
528,6160278320312;	359,25;	0,0;	0,0
528,6888427734375;	370,25;	0,0;	0,0
528,7616577148438;	368,5;	0,0;	0,0
528,8344116210938;	341,0;	0,0;	0,0
528,9072265625;	347,0;	0,0;	0,0
528,97998046875;	342,5;	0,0;	0,0
529,0527954101562;	342,5;	0,0;	0,0
529,12548828125;	348,75;	0,0;	0,0
529,1982421875;	370,0;	0,0;	0,0
529,27099609375;	355,0;	0,0;	0,0
529,34375;	333,75;	0,0;	0,0
529,4163208007812;	366,75;	0,0;	0,0
529,4890747070312;	358,75;	0,0;	0,0
529,561767578125;	358,5;	0,0;	0,0
529,6343383789062;	360,0;	0,0;	0,0
529,70703125;	367,25;	0,0;	0,0
529,7796020507812;	351,25;	0,0;	0,0
529,8522338867188;	369,75;	0,0;	0,0
529,9249267578125;	366,25;	0,0;	0,0
529,9974365234375;	446,0;	0,0;	0,0
530,070068359375;	597,0;	0,0;	0,0
530,142578125;	547,0;	0,0;	0,0
530,2151489257812;	411,75;	0,0;	0,0
530,2876586914062;	349,5;	0,0;	0,0
530,3602294921875;	318,0;	0,0;	0,0
530,4326782226562;	347,5;	0,0;	0,0
530,5052490234375;	343,5;	0,0;	0,0
530,57763671875;	393,75;	0,0;	0,0
530,650146484375;	363,25;	0,0;	0,0
530,72265625;	342,0;	0,0;	0,0
530,7950439453125;	346,25;	0,0;	0,0
530,8674926757812;	371,25;	0,0;	0,0
530,93994140625;	364,75;	0,0;	0,0
531,0122680664062;	331,0;	0,0;	0,0
531,084716796875;	370,0;	0,0;	0,0
531,1571044921875;	340,5;	0,0;	0,0
531,2294311523438;	323,0;	0,0;	0,0
531,3018188476562;	344,25;	0,0;	0,0
531,3740844726562;	373,0;	0,0;	0,0
531,4464111328125;	375,0;	0,0;	0,0
531,518798828125;	431,75;	0,0;	0,0
531,591064453125;	407,5;	0,0;	0,0
531,6633911132812;	354,0;	0,0;	0,0
531,7356567382812;	353,5;	0,0;	0,0
531,807861328125;	357,0;	0,0;	0,0
531,880126953125;	391,25;	0,0;	0,0
531,9523315429688;	394,75;	0,0;	0,0
532,0245361328125;	371,5;	0,0;	0,0
532,0968017578125;	449,75;	0,0;	0,0
532,1689453125;	735,0;	0,0;	0,0
532,2411499023438;	1395,0;	0,0;	0,0
532,3133544921875;	1454,25;	0,0;	0,0
532,3854370117188;	756,25;	0,0;	0,0
532,4576416015625;	588,75;	0,0;	0,0
532,5297241210938;	976,0;	0,0;	0,0
532,6018676757812;	2539,5;	0,0;	0,0
532,6739501953125;	3994,5;	0,0;	0,0
532,7459716796875;	1884,5;	0,0;	0,0
532,818115234375;	551,75;	0,0;	0,0
532,8901977539062;	399,5;	0,0;	0,0
532,9622192382812;	368,25;	0,0;	0,0
533,0342407226562;	368,75;	0,0;	0,0
533,1062622070312;	431,25;	0,0;	0,0
533,1782836914062;	412,25;	0,0;	0,0
533,2503051757812;	375,75;	0,0;	0,0
533,3222045898438;	357,5;	0,0;	0,0
533,3942260742188;	369,25;	0,0;	0,0
533,4661865234375;	347,5;	0,0;	0,0
533,5380859375;	357,5;	0,0;	0,0
533,6100463867188;	378,25;	0,0;	0,0
533,6819458007812;	400,25;	0,0;	0,0
533,7538452148438;	487,0;	0,0;	0,0
533,82568359375;	717,25;	0,0;	0,0
533,8976440429688;	976,25;	0,0;	0,0
533,9694213867188;	818,5;	0,0;	0,0
534,0413208007812;	570,0;	0,0;	0,0
534,1130981445312;	370,5;	0,0;	0,0
534,1849975585938;	358,0;	0,0;	0,0
534,2567749023438;	383,5;	0,0;	0,0
534,3284912109375;	363,25;	0,0;	0,0
534,4003295898438;	376,5;	0,0;	0,0
534,4721069335938;	356,75;	0,0;	0,0
534,5438842773438;	346,0;	0,0;	0,0
534,6156005859375;	374,75;	0,0;	0,0
534,6873779296875;	369,0;	0,0;	0,0
534,759033203125;	438,75;	0,0;	0,0
534,830810546875;	460,75;	0,0;	0,0
534,9024047851562;	399,0;	0,0;	0,0
534,97412109375;	357,75;	0,0;	0,0
535,0457763671875;	354,5;	0,0;	0,0
535,1173706054688;	347,75;	0,0;	0,0
535,1890869140625;	439,75;	0,0;	0,0
535,2607421875;	385,0;	0,0;	0,0
535,332275390625;	376,25;	0,0;	0,0
535,4038696289062;	380,75;	0,0;	0,0
535,4754638671875;	372,75;	0,0;	0,0
535,5469970703125;	379,25;	0,0;	0,0
535,6185913085938;	366,5;	0,0;	0,0
535,6901245117188;	376,0;	0,0;	0,0
535,7616577148438;	371,25;	0,0;	0,0
535,8331909179688;	403,25;	0,0;	0,0
535,9046630859375;	387,0;	0,0;	0,0
535,9761962890625;	395,25;	0,0;	0,0
536,047607421875;	429,5;	0,0;	0,0
536,1190185546875;	458,5;	0,0;	0,0
536,1905517578125;	497,5;	0,0;	0,0
536,2619018554688;	602,0;	0,0;	0,0
536,3333740234375;	792,0;	0,0;	0,0
536,4048461914062;	735,75;	0,0;	0,0
536,4761352539062;	671,75;	0,0;	0,0
536,5475463867188;	826,75;	0,0;	0,0
536,6189575195312;	878,5;	0,0;	0,0
536,6902465820312;	652,0;	0,0;	0,0
536,7615966796875;	747,75;	0,0;	0,0
536,8329467773438;	1114,25;	0,0;	0,0
536,9042358398438;	1377,25;	0,0;	0,0
536,9755859375;	2558,75;	0,0;	0,0
537,046875;	2248,0;	0,0;	0,0
537,1181030273438;	769,75;	0,0;	0,0
537,1893920898438;	436,5;	0,0;	0,0
537,2606201171875;	389,0;	0,0;	0,0
537,3319091796875;	397,75;	0,0;	0,0
537,403076171875;	373,0;	0,0;	0,0
537,4743041992188;	373,75;	0,0;	0,0
537,5454711914062;	383,75;	0,0;	0,0
537,6165771484375;	395,0;	0,0;	0,0
537,6878051757812;	397,25;	0,0;	0,0
537,7589721679688;	414,0;	0,0;	0,0
537,830078125;	413,25;	0,0;	0,0
537,9012451171875;	405,25;	0,0;	0,0
537,9723510742188;	462,5;	0,0;	0,0
538,0433959960938;	618,0;	0,0;	0,0
538,1145629882812;	982,0;	0,0;	0,0
538,1856079101562;	1269,5;	0,0;	0,0
538,2566528320312;	882,0;	0,0;	0,0
538,3276977539062;	492,75;	0,0;	0,0
538,398681640625;	439,0;	0,0;	0,0
538,4697265625;	399,5;	0,0;	0,0
538,5408325195312;	405,75;	0,0;	0,0
538,6117553710938;	403,5;	0,0;	0,0
538,6827392578125;	388,25;	0,0;	0,0
538,753662109375;	461,5;	0,0;	0,0
538,8246459960938;	443,75;	0,0;	0,0
538,8956298828125;	423,75;	0,0;	0,0
538,9664916992188;	438,25;	0,0;	0,0
539,0374145507812;	483,0;	0,0;	0,0
539,1083374023438;	554,75;	0,0;	0,0
539,1791381835938;	656,75;	0,0;	0,0
539,2500610351562;	558,25;	0,0;	0,0
539,3209228515625;	449,0;	0,0;	0,0
539,3917236328125;	533,5;	0,0;	0,0
539,4625854492188;	700,75;	0,0;	0,0
539,5333862304688;	1524,25;	0,0;	0,0
539,6041870117188;	1534,5;	0,0;	0,0
539,6749877929688;	729,5;	0,0;	0,0
539,7457275390625;	452,75;	0,0;	0,0
539,8165283203125;	503,75;	0,0;	0,0
539,8872680664062;	602,0;	0,0;	0,0
539,9580078125;	541,25;	0,0;	0,0
540,0286865234375;	511,25;	0,0;	0,0
540,0994873046875;	590,75;	0,0;	0,0
540,170166015625;	859,25;	0,0;	0,0
540,2408447265625;	1302,0;	0,0;	0,0
540,3114624023438;	1378,5;	0,0;	0,0
540,3821411132812;	1727,5;	0,0;	0,0
540,4528198242188;	1954,25;	0,0;	0,0
540,5233764648438;	974,0;	0,0;	0,0
540,5940551757812;	484,0;	0,0;	0,0
540,6646728515625;	459,75;	0,0;	0,0
540,7351684570312;	473,25;	0,0;	0,0
540,8057861328125;	587,5;	0,0;	0,0
540,8763427734375;	671,0;	0,0;	0,0
540,9468383789062;	806,5;	0,0;	0,0
541,0174560546875;	667,25;	0,0;	0,0
541,087890625;	488,5;	0,0;	0,0
541,158447265625;	490,75;	0,0;	0,0
541,2289428710938;	651,5;	0,0;	0,0
541,2994384765625;	868,25;	0,0;	0,0
541,369873046875;	1127,5;	0,0;	0,0
541,4403686523438;	842,25;	0,0;	0,0
541,5107421875;	536,25;	0,0;	0,0
541,5811767578125;	449,25;	0,0;	0,0
541,6515502929688;	412,0;	0,0;	0,0
541,7219848632812;	416,75;	0,0;	0,0
541,7923583984375;	427,5;	0,0;	0,0
541,8627319335938;	403,5;	0,0;	0,0
541,93310546875;	452,0;	0,0;	0,0
542,0034790039062;	494,5;	0,0;	0,0
542,07373046875;	604,25;	0,0;	0,0
542,1441040039062;	822,25;	0,0;	0,0
542,21435546875;	1156,25;	0,0;	0,0
542,28466796875;	1228,5;	0,0;	0,0
542,3549194335938;	747,25;	0,0;	0,0
542,4251708984375;	456,0;	0,0;	0,0
542,4954833984375;	468,0;	0,0;	0,0
542,5657348632812;	444,0;	0,0;	0,0
542,6358642578125;	495,25;	0,0;	0,0
542,7061157226562;	683,5;	0,0;	0,0
542,7763671875;	1567,0;	0,0;	0,0
542,846435546875;	1957,0;	0,0;	0,0
542,9166870117188;	924,5;	0,0;	0,0
542,98681640625;	438,0;	0,0;	0,0
543,0569458007812;	443,75;	0,0;	0,0
543,1271362304688;	456,0;	0,0;	0,0
543,1971435546875;	596,5;	0,0;	0,0
543,267333984375;	1089,25;	0,0;	0,0
543,33740234375;	1202,0;	0,0;	0,0
543,407470703125;	649,25;	0,0;	0,0
543,4774780273438;	433,0;	0,0;	0,0
543,547607421875;	397,75;	0,0;	0,0
543,6175537109375;	380,0;	0,0;	0,0
543,6876220703125;	379,5;	0,0;	0,0
543,7576293945312;	380,0;	0,0;	0,0
543,8275756835938;	386,0;	0,0;	0,0
543,8975830078125;	364,75;	0,0;	0,0
543,9674682617188;	377,5;	0,0;	0,0
544,0374755859375;	389,25;	0,0;	0,0
544,107421875;	391,5;	0,0;	0,0
544,1773071289062;	435,5;	0,0;	0,0
544,2472534179688;	487,25;	0,0;	0,0
544,317138671875;	664,75;	0,0;	0,0
544,386962890625;	749,5;	0,0;	0,0
544,4568481445312;	973,75;	0,0;	0,0
544,5266723632812;	1870,75;	0,0;	0,0
544,5965576171875;	1524,0;	0,0;	0,0
544,6663818359375;	637,25;	0,0;	0,0
544,7361450195312;	426,25;	0,0;	0,0
544,8060302734375;	388,25;	0,0;	0,0
544,8757934570312;	416,75;	0,0;	0,0
544,945556640625;	405,0;	0,0;	0,0
545,0153198242188;	411,5;	0,0;	0,0
545,0850830078125;	456,0;	0,0;	0,0
545,15478515625;	460,5;	0,0;	0,0
545,2244873046875;	567,25;	0,0;	0,0
545,294189453125;	718,0;	0,0;	0,0
545,3639526367188;	1313,75;	0,0;	0,0
545,43359375;	1614,5;	0,0;	0,0
545,5032348632812;	929,25;	0,0;	0,0
545,5729370117188;	434,5;	0,0;	0,0
545,6424560546875;	410,5;	0,0;	0,0
545,712158203125;	395,75;	0,0;	0,0
545,78173828125;	365,75;	0,0;	0,0
545,851318359375;	408,5;	0,0;	0,0
545,9208984375;	420,75;	0,0;	0,0
545,9905395507812;	452,25;	0,0;	0,0
546,0599975585938;	526,75;	0,0;	0,0
546,1295776367188;	650,25;	0,0;	0,0
546,1990966796875;	653,25;	0,0;	0,0
546,2686157226562;	496,25;	0,0;	0,0
546,338134765625;	464,5;	0,0;	0,0
546,4075317382812;	443,25;	0,0;	0,0
546,4771118164062;	460,5;	0,0;	0,0
546,5465698242188;	455,0;	0,0;	0,0
546,615966796875;	419,0;	0,0;	0,0
546,6853637695312;	401,25;	0,0;	0,0
546,7548217773438;	398,0;	0,0;	0,0
546,82421875;	395,75;	0,0;	0,0
546,8936157226562;	412,5;	0,0;	0,0
546,9630126953125;	395,0;	0,0;	0,0
547,0323486328125;	411,5;	0,0;	0,0
547,1016845703125;	378,5;	0,0;	0,0
547,1710205078125;	426,75;	0,0;	0,0
547,2403564453125;	493,25;	0,0;	0,0
547,3096923828125;	486,5;	0,0;	0,0
547,37890625;	449,75;	0,0;	0,0
547,4482421875;	592,75;	0,0;	0,0
547,5175170898438;	618,25;	0,0;	0,0
547,586669921875;	555,5;	0,0;	0,0
547,6559448242188;	459,25;	0,0;	0,0
547,7252197265625;	455,75;	0,0;	0,0
547,7943725585938;	421,25;	0,0;	0,0
547,8636474609375;	410,0;	0,0;	0,0
547,9327392578125;	466,75;	0,0;	0,0
548,001953125;	484,0;	0,0;	0,0
548,0711059570312;	452,25;	0,0;	0,0
548,1401977539062;	453,5;	0,0;	0,0
548,2093505859375;	443,0;	0,0;	0,0
548,2784423828125;	416,75;	0,0;	0,0
548,3475341796875;	452,0;	0,0;	0,0
548,4166259765625;	424,0;	0,0;	0,0
548,4857177734375;	409,75;	0,0;	0,0
548,5547485351562;	431,5;	0,0;	0,0
548,6238403320312;	447,75;	0,0;	0,0
548,6928100585938;	488,0;	0,0;	0,0
548,7619018554688;	457,0;	0,0;	0,0
548,8309326171875;	416,75;	0,0;	0,0
548,8998413085938;	462,75;	0,0;	0,0
548,9688720703125;	418,25;	0,0;	0,0
549,0377807617188;	415,0;	0,0;	0,0
549,1067504882812;	422,5;	0,0;	0,0
549,1756591796875;	456,25;	0,0;	0,0
549,2445678710938;	429,25;	0,0;	0,0
549,3135375976562;	417,0;	0,0;	0,0
549,3824462890625;	401,5;	0,0;	0,0
549,4512939453125;	446,75;	0,0;	0,0
549,5201416015625;	482,5;	0,0;	0,0
549,5890502929688;	643,5;	0,0;	0,0
549,6578369140625;	593,5;	0,0;	0,0
549,7266845703125;	475,75;	0,0;	0,0
549,7954711914062;	443,25;	0,0;	0,0
549,8642578125;	466,25;	0,0;	0,0
549,93310546875;	526,75;	0,0;	0,0
550,0017700195312;	574,75;	0,0;	0,0
550,070556640625;	541,25;	0,0;	0,0
550,1393432617188;	475,0;	0,0;	0,0
550,2080078125;	435,0;	0,0;	0,0
550,2767944335938;	442,25;	0,0;	0,0
550,345458984375;	461,75;	0,0;	0,0
550,4141235351562;	551,0;	0,0;	0,0
550,4828491210938;	684,5;	0,0;	0,0
550,5513916015625;	745,0;	0,0;	0,0
550,6201171875;	567,5;	0,0;	0,0
550,688720703125;	475,75;	0,0;	0,0
550,75732421875;	502,5;	0,0;	0,0
550,8259887695312;	484,25;	0,0;	0,0
550,89453125;	484,0;	0,0;	0,0
550,9630737304688;	489,25;	0,0;	0,0
551,0316772460938;	476,25;	0,0;	0,0
551,1002197265625;	516,75;	0,0;	0,0
551,1687622070312;	508,5;	0,0;	0,0
551,2373046875;	519,5;	0,0;	0,0
551,3057250976562;	516,0;	0,0;	0,0
551,374267578125;	477,0;	0,0;	0,0
551,4427490234375;	479,75;	0,0;	0,0
551,5111694335938;	474,25;	0,0;	0,0
551,5796508789062;	471,75;	0,0;	0,0
551,6480102539062;	474,0;	0,0;	0,0
551,7164916992188;	470,0;	0,0;	0,0
551,7849731445312;	490,75;	0,0;	0,0
551,8533325195312;	459,0;	0,0;	0,0
551,9216918945312;	475,75;	0,0;	0,0
551,9901123046875;	512,0;	0,0;	0,0
552,0584106445312;	477,0;	0,0;	0,0
552,1267700195312;	486,25;	0,0;	0,0
552,195068359375;	469,5;	0,0;	0,0
552,2633666992188;	466,25;	0,0;	0,0
552,3316650390625;	469,0;	0,0;	0,0
552,39990234375;	508,0;	0,0;	0,0
552,46826171875;	485,0;	0,0;	0,0
552,5364990234375;	500,75;	0,0;	0,0
552,6046752929688;	482,0;	0,0;	0,0
552,6729736328125;	494,0;	0,0;	0,0
552,7412109375;	508,0;	0,0;	0,0
552,809326171875;	521,0;	0,0;	0,0
552,8775634765625;	488,25;	0,0;	0,0
552,9457397460938;	505,5;	0,0;	0,0
553,0138549804688;	491,5;	0,0;	0,0
553,08203125;	524,0;	0,0;	0,0
553,150146484375;	547,0;	0,0;	0,0
553,2182006835938;	542,5;	0,0;	0,0
553,286376953125;	533,75;	0,0;	0,0
553,3544311523438;	662,75;	0,0;	0,0
553,4225463867188;	749,0;	0,0;	0,0
553,4906005859375;	610,0;	0,0;	0,0
553,55859375;	511,75;	0,0;	0,0
553,626708984375;	517,25;	0,0;	0,0
553,6947021484375;	543,25;	0,0;	0,0
553,7626953125;	557,5;	0,0;	0,0
553,8306884765625;	498,5;	0,0;	0,0
553,8986206054688;	528,25;	0,0;	0,0
553,9666137695312;	543,5;	0,0;	0,0
554,0346069335938;	531,0;	0,0;	0,0
554,1024780273438;	549,75;	0,0;	0,0
554,1704711914062;	628,75;	0,0;	0,0
554,2384033203125;	579,0;	0,0;	0,0
554,3062133789062;	562,75;	0,0;	0,0
554,3740844726562;	534,5;	0,0;	0,0
554,4419555664062;	568,25;	0,0;	0,0
554,509765625;	566,25;	0,0;	0,0
554,57763671875;	526,5;	0,0;	0,0
554,6454467773438;	527,25;	0,0;	0,0
554,7133178710938;	543,75;	0,0;	0,0
554,7810668945312;	528,0;	0,0;	0,0
554,8488159179688;	553,0;	0,0;	0,0
554,9166259765625;	517,25;	0,0;	0,0
554,9843139648438;	516,0;	0,0;	0,0
555,0521240234375;	513,75;	0,0;	0,0
555,119873046875;	510,5;	0,0;	0,0
555,1875;	557,5;	0,0;	0,0
555,2552490234375;	582,5;	0,0;	0,0
555,3229370117188;	631,0;	0,0;	0,0
555,390625;	542,75;	0,0;	0,0
555,458251953125;	511,75;	0,0;	0,0
555,52587890625;	523,25;	0,0;	0,0
555,593505859375;	516,25;	0,0;	0,0
555,6611328125;	497,5;	0,0;	0,0
555,7286987304688;	514,75;	0,0;	0,0
555,7963256835938;	515,75;	0,0;	0,0
555,8638916015625;	531,5;	0,0;	0,0
555,931396484375;	515,5;	0,0;	0,0
555,9989624023438;	502,25;	0,0;	0,0
556,0665283203125;	537,75;	0,0;	0,0
556,1339721679688;	554,75;	0,0;	0,0
556,2014770507812;	546,25;	0,0;	0,0
556,26904296875;	539,25;	0,0;	0,0
556,3364868164062;	557,5;	0,0;	0,0
556,4039306640625;	594,25;	0,0;	0,0
556,4713134765625;	545,75;	0,0;	0,0
556,538818359375;	515,0;	0,0;	0,0
556,6062622070312;	499,0;	0,0;	0,0
556,673583984375;	528,25;	0,0;	0,0
556,7410278320312;	627,5;	0,0;	0,0
556,8084716796875;	943,25;	0,0;	0,0
556,875732421875;	801,5;	0,0;	0,0
556,943115234375;	583,5;	0,0;	0,0
557,010498046875;	568,5;	0,0;	0,0
557,0776977539062;	842,25;	0,0;	0,0
557,1450805664062;	1250,5;	0,0;	0,0
557,2123413085938;	948,25;	0,0;	0,0
557,2796020507812;	555,25;	0,0;	0,0
557,346923828125;	485,75;	0,0;	0,0
557,4141235351562;	593,5;	0,0;	0,0
557,4813232421875;	683,25;	0,0;	0,0
557,5485229492188;	552,5;	0,0;	0,0
557,6157836914062;	509,5;	0,0;	0,0
557,6829833984375;	470,75;	0,0;	0,0
557,7501831054688;	438,25;	0,0;	0,0
557,8173217773438;	433,5;	0,0;	0,0
557,8844604492188;	458,75;	0,0;	0,0
557,9515991210938;	449,25;	0,0;	0,0
558,0187377929688;	566,25;	0,0;	0,0
558,0858764648438;	555,5;	0,0;	0,0
558,1528930664062;	491,25;	0,0;	0,0
558,219970703125;	466,25;	0,0;	0,0
558,2869873046875;	505,5;	0,0;	0,0
558,3540649414062;	533,0;	0,0;	0,0
558,421142578125;	716,75;	0,0;	0,0
558,4881591796875;	1301,0;	0,0;	0,0
558,55517578125;	1691,0;	0,0;	0,0
558,6221923828125;	1221,75;	0,0;	0,0
558,6891479492188;	1267,0;	0,0;	0,0
558,7561645507812;	1341,75;	0,0;	0,0
558,8230590820312;	898,5;	0,0;	0,0
558,8900146484375;	588,0;	0,0;	0,0
558,9569702148438;	508,75;	0,0;	0,0
559,0238037109375;	473,5;	0,0;	0,0
559,0906982421875;	506,75;	0,0;	0,0
559,1576538085938;	521,25;	0,0;	0,0
559,2244262695312;	639,0;	0,0;	0,0
559,2913208007812;	983,75;	0,0;	0,0
559,358154296875;	827,75;	0,0;	0,0
559,4249877929688;	546,75;	0,0;	0,0
559,4918212890625;	467,0;	0,0;	0,0
559,5586547851562;	520,5;	0,0;	0,0
559,6253662109375;	682,75;	0,0;	0,0
559,692138671875;	868,75;	0,0;	0,0
559,7589111328125;	749,75;	0,0;	0,0
559,8256225585938;	549,5;	0,0;	0,0
559,8923950195312;	516,25;	0,0;	0,0
559,9590454101562;	617,25;	0,0;	0,0
560,0257568359375;	606,75;	0,0;	0,0
560,0924682617188;	732,75;	0,0;	0,0
560,1591186523438;	803,75;	0,0;	0,0
560,225830078125;	635,0;	0,0;	0,0
560,29248046875;	463,5;	0,0;	0,0
560,3590698242188;	431,75;	0,0;	0,0
560,4256591796875;	409,75;	0,0;	0,0
560,4921875;	439,75;	0,0;	0,0
560,5587768554688;	438,0;	0,0;	0,0
560,6254272460938;	433,25;	0,0;	0,0
560,6919555664062;	437,25;	0,0;	0,0
560,7584838867188;	425,75;	0,0;	0,0
560,824951171875;	422,25;	0,0;	0,0
560,8914794921875;	448,0;	0,0;	0,0
560,9580688476562;	434,0;	0,0;	0,0
561,0245361328125;	414,5;	0,0;	0,0
561,0909423828125;	477,75;	0,0;	0,0
561,157470703125;	481,0;	0,0;	0,0
561,2238159179688;	539,5;	0,0;	0,0
561,2903442382812;	760,5;	0,0;	0,0
561,3567504882812;	1348,25;	0,0;	0,0
561,4231567382812;	2169,25;	0,0;	0,0
561,489501953125;	1596,5;	0,0;	0,0
561,5558471679688;	781,25;	0,0;	0,0
561,6222534179688;	526,25;	0,0;	0,0
561,6885986328125;	506,0;	0,0;	0,0
561,7548828125;	505,5;	0,0;	0,0
561,8211669921875;	507,75;	0,0;	0,0
561,8875122070312;	458,0;	0,0;	0,0
561,9537963867188;	461,5;	0,0;	0,0
562,0200805664062;	478,0;	0,0;	0,0
562,0863647460938;	470,25;	0,0;	0,0
562,152587890625;	504,25;	0,0;	0,0
562,2188110351562;	551,0;	0,0;	0,0
562,2849731445312;	724,75;	0,0;	0,0
562,3511962890625;	686,5;	0,0;	0,0
562,4174194335938;	560,0;	0,0;	0,0
562,4835205078125;	494,0;	0,0;	0,0
562,5496826171875;	468,0;	0,0;	0,0
562,6159057617188;	469,75;	0,0;	0,0
562,6820068359375;	489,75;	0,0;	0,0
562,748046875;	464,5;	0,0;	0,0
562,814208984375;	437,5;	0,0;	0,0
562,8803100585938;	464,0;	0,0;	0,0
562,9463500976562;	490,75;	0,0;	0,0
563,0123901367188;	469,75;	0,0;	0,0
563,0784301757812;	465,75;	0,0;	0,0
563,14453125;	459,25;	0,0;	0,0
563,21044921875;	517,0;	0,0;	0,0
563,2764892578125;	555,25;	0,0;	0,0
563,3424682617188;	507,75;	0,0;	0,0
563,408447265625;	475,75;	0,0;	0,0
563,4744262695312;	504,0;	0,0;	0,0
563,5404052734375;	491,5;	0,0;	0,0
563,6062622070312;	556,0;	0,0;	0,0
563,6722412109375;	548,75;	0,0;	0,0
563,7380981445312;	521,25;	0,0;	0,0
563,8040161132812;	508,0;	0,0;	0,0
563,869873046875;	470,75;	0,0;	0,0
563,9356689453125;	506,0;	0,0;	0,0
564,0015258789062;	485,25;	0,0;	0,0
564,0673217773438;	484,0;	0,0;	0,0
564,1331787109375;	487,0;	0,0;	0,0
564,1990356445312;	468,25;	0,0;	0,0
564,2647705078125;	452,5;	0,0;	0,0
564,3305053710938;	462,0;	0,0;	0,0
564,3963012695312;	471,5;	0,0;	0,0
564,4620361328125;	490,5;	0,0;	0,0
564,5277709960938;	476,0;	0,0;	0,0
564,593505859375;	485,25;	0,0;	0,0
564,6591796875;	464,0;	0,0;	0,0
564,7249145507812;	484,25;	0,0;	0,0
564,7904663085938;	493,25;	0,0;	0,0
564,856201171875;	508,0;	0,0;	0,0
564,9218139648438;	516,5;	0,0;	0,0
564,9874877929688;	496,5;	0,0;	0,0
565,0530395507812;	518,0;	0,0;	0,0
565,1187133789062;	499,0;	0,0;	0,0
565,1842651367188;	482,0;	0,0;	0,0
565,2498168945312;	520,75;	0,0;	0,0
565,3153686523438;	545,75;	0,0;	0,0
565,3809204101562;	579,5;	0,0;	0,0
565,4464721679688;	544,5;	0,0;	0,0
565,511962890625;	515,0;	0,0;	0,0
565,5774536132812;	497,75;	0,0;	0,0
565,6429443359375;	552,75;	0,0;	0,0
565,7083740234375;	741,25;	0,0;	0,0
565,7738647460938;	741,75;	0,0;	0,0
565,83935546875;	582,0;	0,0;	0,0
565,9047241210938;	529,75;	0,0;	0,0
565,9701538085938;	532,75;	0,0;	0,0
566,0355834960938;	529,0;	0,0;	0,0
566,1009521484375;	598,25;	0,0;	0,0
566,1663208007812;	608,5;	0,0;	0,0
566,2316284179688;	541,75;	0,0;	0,0
566,2969970703125;	497,75;	0,0;	0,0
566,3623657226562;	523,0;	0,0;	0,0
566,4276123046875;	505,0;	0,0;	0,0
566,4929809570312;	493,75;	0,0;	0,0
566,5582275390625;	534,25;	0,0;	0,0
566,6234741210938;	527,25;	0,0;	0,0
566,688720703125;	507,0;	0,0;	0,0
566,7540283203125;	491,0;	0,0;	0,0
566,8192138671875;	483,25;	0,0;	0,0
566,8843994140625;	514,5;	0,0;	0,0
566,9495849609375;	485,0;	0,0;	0,0
567,0147705078125;	476,5;	0,0;	0,0
567,0799560546875;	488,5;	0,0;	0,0
567,1451416015625;	514,5;	0,0;	0,0
567,2102661132812;	482,75;	0,0;	0,0
567,2753295898438;	504,0;	0,0;	0,0
567,3405151367188;	507,25;	0,0;	0,0
567,4055786132812;	512,75;	0,0;	0,0
567,4706420898438;	508,75;	0,0;	0,0
567,5357055664062;	497,25;	0,0;	0,0
567,600830078125;	498,5;	0,0;	0,0
567,6658325195312;	558,0;	0,0;	0,0
567,7308959960938;	518,25;	0,0;	0,0
567,7958374023438;	525,25;	0,0;	0,0
567,86083984375;	566,0;	0,0;	0,0
567,9258422851562;	548,75;	0,0;	0,0
567,9907836914062;	579,5;	0,0;	0,0
568,0557250976562;	701,5;	0,0;	0,0
568,1207275390625;	879,0;	0,0;	0,0
568,185546875;	862,5;	0,0;	0,0
568,25048828125;	808,75;	0,0;	0,0
568,3153686523438;	717,25;	0,0;	0,0
568,3802490234375;	622,75;	0,0;	0,0
568,4451293945312;	679,0;	0,0;	0,0
568,5100708007812;	716,75;	0,0;	0,0
568,5748291015625;	810,25;	0,0;	0,0
568,6396484375;	1004,5;	0,0;	0,0
568,7044677734375;	1254,25;	0,0;	0,0
568,769287109375;	1168,0;	0,0;	0,0
568,8340454101562;	923,75;	0,0;	0,0
568,8987426757812;	774,0;	0,0;	0,0
568,9635009765625;	712,75;	0,0;	0,0
569,0282592773438;	609,5;	0,0;	0,0
569,0929565429688;	593,0;	0,0;	0,0
569,15771484375;	618,75;	0,0;	0,0
569,222412109375;	556,0;	0,0;	0,0
569,2870483398438;	526,75;	0,0;	0,0
569,3517456054688;	529,25;	0,0;	0,0
569,4163818359375;	567,0;	0,0;	0,0
569,4810180664062;	480,25;	0,0;	0,0
569,5455932617188;	515,0;	0,0;	0,0
569,6102294921875;	496,75;	0,0;	0,0
569,6748657226562;	494,5;	0,0;	0,0
569,7393188476562;	481,5;	0,0;	0,0
569,803955078125;	505,5;	0,0;	0,0
569,8685302734375;	501,0;	0,0;	0,0
569,9330444335938;	516,25;	0,0;	0,0
569,9974975585938;	553,25;	0,0;	0,0
570,0620727539062;	518,25;	0,0;	0,0
570,1265258789062;	504,25;	0,0;	0,0
570,1910400390625;	488,5;	0,0;	0,0
570,2554931640625;	485,5;	0,0;	0,0
570,3198852539062;	481,5;	0,0;	0,0
570,3843383789062;	514,0;	0,0;	0,0
570,44873046875;	589,5;	0,0;	0,0
570,51318359375;	539,75;	0,0;	0,0
570,5775756835938;	529,75;	0,0;	0,0
570,6419067382812;	509,25;	0,0;	0,0
570,706298828125;	517,0;	0,0;	0,0
570,7706298828125;	657,25;	0,0;	0,0
570,8349609375;	591,75;	0,0;	0,0
570,8992919921875;	518,25;	0,0;	0,0
570,963623046875;	480,5;	0,0;	0,0
571,02783203125;	477,0;	0,0;	0,0
571,0921020507812;	496,0;	0,0;	0,0
571,1563110351562;	500,25;	0,0;	0,0
571,2206420898438;	471,5;	0,0;	0,0
571,2848510742188;	494,25;	0,0;	0,0
571,3489990234375;	508,0;	0,0;	0,0
571,4132080078125;	474,0;	0,0;	0,0
571,4774169921875;	469,5;	0,0;	0,0
571,5415649414062;	472,75;	0,0;	0,0
571,6057739257812;	500,0;	0,0;	0,0
571,6698608398438;	511,0;	0,0;	0,0
571,7340087890625;	490,0;	0,0;	0,0
571,7981567382812;	478,25;	0,0;	0,0
571,8621826171875;	423,75;	0,0;	0,0
571,92626953125;	483,5;	0,0;	0,0
571,9904174804688;	469,0;	0,0;	0,0
572,0543823242188;	460,0;	0,0;	0,0
572,1184692382812;	483,0;	0,0;	0,0
572,1824951171875;	460,25;	0,0;	0,0
572,2464599609375;	445,25;	0,0;	0,0
572,3104858398438;	465,5;	0,0;	0,0
572,3744506835938;	488,0;	0,0;	0,0
572,4384155273438;	444,0;	0,0;	0,0
572,5023803710938;	471,5;	0,0;	0,0
572,5662841796875;	443,0;	0,0;	0,0
572,6301879882812;	449,25;	0,0;	0,0
572,6941528320312;	462,5;	0,0;	0,0
572,7579956054688;	457,5;	0,0;	0,0
572,8218383789062;	473,25;	0,0;	0,0
572,8856811523438;	476,0;	0,0;	0,0
572,9495849609375;	453,0;	0,0;	0,0
573,013427734375;	492,75;	0,0;	0,0
573,0772705078125;	478,25;	0,0;	0,0
573,1410522460938;	483,0;	0,0;	0,0
573,204833984375;	479,5;	0,0;	0,0
573,2686157226562;	470,0;	0,0;	0,0
573,3323364257812;	454,25;	0,0;	0,0
573,3961181640625;	474,5;	0,0;	0,0
573,4598388671875;	459,0;	0,0;	0,0
573,5235595703125;	489,25;	0,0;	0,0
573,5872192382812;	464,5;	0,0;	0,0
573,6509399414062;	469,5;	0,0;	0,0
573,714599609375;	470,25;	0,0;	0,0
573,7781982421875;	449,5;	0,0;	0,0
573,8418579101562;	471,5;	0,0;	0,0
573,905517578125;	444,75;	0,0;	0,0
573,9691162109375;	474,75;	0,0;	0,0
574,0327758789062;	459,5;	0,0;	0,0
574,0963745117188;	456,75;	0,0;	0,0
574,1598510742188;	452,25;	0,0;	0,0
574,2234497070312;	445,75;	0,0;	0,0
574,2869873046875;	461,25;	0,0;	0,0
574,3504638671875;	461,25;	0,0;	0,0
574,4140014648438;	457,25;	0,0;	0,0
574,4775390625;	458,5;	0,0;	0,0
574,5409545898438;	455,75;	0,0;	0,0
574,6044921875;	457,5;	0,0;	0,0
574,6679077148438;	428,5;	0,0;	0,0
574,7313232421875;	454,5;	0,0;	0,0
574,7947998046875;	476,75;	0,0;	0,0
574,858154296875;	430,75;	0,0;	0,0
574,9215698242188;	498,75;	0,0;	0,0
574,98486328125;	434,75;	0,0;	0,0
575,04833984375;	503,25;	0,0;	0,0
575,1116943359375;	533,75;	0,0;	0,0
575,1749877929688;	559,75;	0,0;	0,0
575,2383422851562;	528,75;	0,0;	0,0
575,3016357421875;	428,25;	0,0;	0,0
575,3648681640625;	444,5;	0,0;	0,0
575,42822265625;	457,75;	0,0;	0,0
575,491455078125;	459,75;	0,0;	0,0
575,5546264648438;	432,25;	0,0;	0,0
575,617919921875;	457,5;	0,0;	0,0
575,6810913085938;	438,25;	0,0;	0,0
575,7442626953125;	441,75;	0,0;	0,0
575,8074951171875;	457,25;	0,0;	0,0
575,8706665039062;	455,0;	0,0;	0,0
575,933837890625;	465,25;	0,0;	0,0
575,9969482421875;	477,0;	0,0;	0,0
576,06005859375;	520,75;	0,0;	0,0
576,1232299804688;	617,5;	0,0;	0,0
576,186279296875;	625,5;	0,0;	0,0
576,2493896484375;	528,5;	0,0;	0,0
576,3125;	487,5;	0,0;	0,0
576,37548828125;	454,75;	0,0;	0,0
576,4385375976562;	460,25;	0,0;	0,0
576,5015869140625;	460,75;	0,0;	0,0
576,5645751953125;	454,75;	0,0;	0,0
576,6275634765625;	437,25;	0,0;	0,0
576,6904907226562;	447,25;	0,0;	0,0
576,7534790039062;	423,5;	0,0;	0,0
576,8164672851562;	454,75;	0,0;	0,0
576,87939453125;	409,25;	0,0;	0,0
576,9423217773438;	446,0;	0,0;	0,0
577,0052490234375;	453,5;	0,0;	0,0
577,068115234375;	433,25;	0,0;	0,0
577,1309814453125;	444,25;	0,0;	0,0
577,1939086914062;	418,0;	0,0;	0,0
577,2567138671875;	444,5;	0,0;	0,0
577,3195190429688;	483,25;	0,0;	0,0
577,38232421875;	453,5;	0,0;	0,0
577,4451293945312;	438,0;	0,0;	0,0
577,5079956054688;	445,0;	0,0;	0,0
577,5706787109375;	440,25;	0,0;	0,0
577,6334838867188;	459,5;	0,0;	0,0
577,6962890625;	466,75;	0,0;	0,0
577,7589721679688;	468,5;	0,0;	0,0
577,8216552734375;	448,0;	0,0;	0,0
577,8843994140625;	452,5;	0,0;	0,0
577,947021484375;	463,75;	0,0;	0,0
578,009765625;	482,75;	0,0;	0,0
578,0723876953125;	536,25;	0,0;	0,0
578,135009765625;	540,5;	0,0;	0,0
578,1976928710938;	463,25;	0,0;	0,0
578,2601928710938;	455,75;	0,0;	0,0
578,3228149414062;	479,25;	0,0;	0,0
578,3854370117188;	451,5;	0,0;	0,0
578,447998046875;	490,75;	0,0;	0,0
578,5105590820312;	467,5;	0,0;	0,0
578,5731201171875;	480,25;	0,0;	0,0
578,6356201171875;	447,0;	0,0;	0,0
578,6981811523438;	462,75;	0,0;	0,0
578,7605590820312;	465,25;	0,0;	0,0
578,8231201171875;	503,25;	0,0;	0,0
578,8855590820312;	517,5;	0,0;	0,0
578,9479370117188;	505,0;	0,0;	0,0
579,0104370117188;	509,25;	0,0;	0,0
579,0728149414062;	506,0;	0,0;	0,0
579,1351928710938;	482,0;	0,0;	0,0
579,1976318359375;	475,25;	0,0;	0,0
579,260009765625;	497,5;	0,0;	0,0
579,3223266601562;	476,5;	0,0;	0,0
579,3847045898438;	441,0;	0,0;	0,0
579,447021484375;	467,0;	0,0;	0,0
579,5093383789062;	449,5;	0,0;	0,0
579,5716552734375;	479,25;	0,0;	0,0
579,6339111328125;	462,25;	0,0;	0,0
579,6962280273438;	473,0;	0,0;	0,0
579,7583618164062;	472,0;	0,0;	0,0
579,8206787109375;	476,75;	0,0;	0,0
579,8829345703125;	470,0;	0,0;	0,0
579,9451293945312;	479,0;	0,0;	0,0
580,0072631835938;	537,0;	0,0;	0,0
580,0695190429688;	524,5;	0,0;	0,0
580,131591796875;	529,75;	0,0;	0,0
580,1937866210938;	510,5;	0,0;	0,0
580,2559204101562;	535,5;	0,0;	0,0
580,3180541992188;	486,5;	0,0;	0,0
580,3801879882812;	491,75;	0,0;	0,0
580,4421997070312;	479,25;	0,0;	0,0
580,5043334960938;	482,75;	0,0;	0,0
580,56640625;	521,75;	0,0;	0,0
580,62841796875;	500,25;	0,0;	0,0
580,6904907226562;	505,25;	0,0;	0,0
580,7525024414062;	501,5;	0,0;	0,0
580,814453125;	482,25;	0,0;	0,0
580,87646484375;	504,75;	0,0;	0,0
580,9384765625;	459,5;	0,0;	0,0
581,0003662109375;	489,5;	0,0;	0,0
581,0623779296875;	479,25;	0,0;	0,0
581,124267578125;	513,5;	0,0;	0,0
581,1861572265625;	485,25;	0,0;	0,0
581,2481079101562;	486,75;	0,0;	0,0
581,3099365234375;	486,75;	0,0;	0,0
581,371826171875;	524,0;	0,0;	0,0
581,4336547851562;	547,25;	0,0;	0,0
581,4954833984375;	537,0;	0,0;	0,0
581,557373046875;	525,25;	0,0;	0,0
581,619140625;	490,75;	0,0;	0,0
581,680908203125;	471,5;	0,0;	0,0
581,7427368164062;	506,5;	0,0;	0,0
581,804443359375;	526,0;	0,0;	0,0
581,8662109375;	527,5;	0,0;	0,0
581,9279174804688;	514,75;	0,0;	0,0
581,9896850585938;	527,75;	0,0;	0,0
582,0513916015625;	513,25;	0,0;	0,0
582,113037109375;	516,5;	0,0;	0,0
582,1747436523438;	509,75;	0,0;	0,0
582,2363891601562;	515,25;	0,0;	0,0
582,2979736328125;	508,75;	0,0;	0,0
582,359619140625;	512,0;	0,0;	0,0
582,4212646484375;	539,25;	0,0;	0,0
582,4828491210938;	516,75;	0,0;	0,0
582,5444946289062;	525,0;	0,0;	0,0
582,6060180664062;	507,25;	0,0;	0,0
582,6675415039062;	502,5;	0,0;	0,0
582,7290649414062;	505,5;	0,0;	0,0
582,7905883789062;	525,25;	0,0;	0,0
582,8521118164062;	503,0;	0,0;	0,0
582,9136352539062;	536,5;	0,0;	0,0
582,9750366210938;	492,25;	0,0;	0,0
583,0365600585938;	552,25;	0,0;	0,0
583,0980224609375;	551,0;	0,0;	0,0
583,159423828125;	507,0;	0,0;	0,0
583,2208862304688;	547,75;	0,0;	0,0
583,2822875976562;	555,5;	0,0;	0,0
583,3436279296875;	518,0;	0,0;	0,0
583,405029296875;	547,0;	0,0;	0,0
583,46630859375;	525,5;	0,0;	0,0
583,5277099609375;	527,75;	0,0;	0,0
583,5890502929688;	507,75;	0,0;	0,0
583,6503295898438;	540,5;	0,0;	0,0
583,711669921875;	509,0;	0,0;	0,0
583,77294921875;	532,75;	0,0;	0,0
583,8341674804688;	499,75;	0,0;	0,0
583,8955078125;	513,75;	0,0;	0,0
583,9567260742188;	535,75;	0,0;	0,0
584,0179443359375;	551,5;	0,0;	0,0
584,0791015625;	517,25;	0,0;	0,0
584,1403198242188;	498,75;	0,0;	0,0
584,2014770507812;	516,25;	0,0;	0,0
584,2626342773438;	510,75;	0,0;	0,0
584,3237915039062;	513,75;	0,0;	0,0
584,3849487304688;	479,5;	0,0;	0,0
584,4459838867188;	505,25;	0,0;	0,0
584,5071411132812;	494,5;	0,0;	0,0
584,5682373046875;	544,25;	0,0;	0,0
584,6293334960938;	521,25;	0,0;	0,0
584,6903076171875;	515,75;	0,0;	0,0
584,7514038085938;	497,0;	0,0;	0,0
584,8123779296875;	544,75;	0,0;	0,0
584,8734130859375;	538,0;	0,0;	0,0
584,9344482421875;	555,0;	0,0;	0,0
584,9954223632812;	522,75;	0,0;	0,0
585,056396484375;	553,0;	0,0;	0,0
585,1173095703125;	526,75;	0,0;	0,0
585,1782836914062;	565,5;	0,0;	0,0
585,2391967773438;	537,0;	0,0;	0,0
585,3001098632812;	532,75;	0,0;	0,0
585,3609619140625;	578,5;	0,0;	0,0
585,4219360351562;	607,25;	0,0;	0,0
585,4827270507812;	635,75;	0,0;	0,0
585,5435791015625;	719,0;	0,0;	0,0
585,6044311523438;	850,25;	0,0;	0,0
585,6652221679688;	786,75;	0,0;	0,0
585,72607421875;	649,0;	0,0;	0,0
585,7868041992188;	634,25;	0,0;	0,0
585,8475952148438;	603,5;	0,0;	0,0
585,9083251953125;	619,0;	0,0;	0,0
585,9690551757812;	632,75;	0,0;	0,0
586,02978515625;	640,5;	0,0;	0,0
586,090576171875;	678,5;	0,0;	0,0
586,1511840820312;	629,25;	0,0;	0,0
586,2118530273438;	600,0;	0,0;	0,0
586,2725830078125;	594,75;	0,0;	0,0
586,3331909179688;	586,75;	0,0;	0,0
586,393798828125;	654,75;	0,0;	0,0
586,4544067382812;	565,0;	0,0;	0,0
586,5150146484375;	654,5;	0,0;	0,0
586,57568359375;	612,75;	0,0;	0,0
586,6361694335938;	582,75;	0,0;	0,0
586,6967163085938;	662,75;	0,0;	0,0
586,7573852539062;	632,5;	0,0;	0,0
586,8178100585938;	595,75;	0,0;	0,0
586,8783569335938;	682,25;	0,0;	0,0
586,9388427734375;	658,75;	0,0;	0,0
586,9993896484375;	706,75;	0,0;	0,0
587,0598754882812;	698,75;	0,0;	0,0
587,1202392578125;	705,75;	0,0;	0,0
587,1807250976562;	693,5;	0,0;	0,0
587,2410888671875;	723,75;	0,0;	0,0
587,301513671875;	736,25;	0,0;	0,0
587,3619384765625;	735,75;	0,0;	0,0
587,4223022460938;	828,25;	0,0;	0,0
587,482666015625;	829,25;	0,0;	0,0
587,5430297851562;	792,25;	0,0;	0,0
587,6033325195312;	853,5;	0,0;	0,0
587,6636352539062;	825,25;	0,0;	0,0
587,7239990234375;	899,0;	0,0;	0,0
587,7841796875;	917,0;	0,0;	0,0
587,8445434570312;	971,5;	0,0;	0,0
587,90478515625;	1024,75;	0,0;	0,0
587,9649658203125;	1086,0;	0,0;	0,0
588,0252075195312;	1109,5;	0,0;	0,0
588,08544921875;	1197,5;	0,0;	0,0
588,1456298828125;	1351,75;	0,0;	0,0
588,205810546875;	1564,25;	0,0;	0,0
588,2659301757812;	1706,5;	0,0;	0,0
588,3261108398438;	2045,75;	0,0;	0,0
588,3862915039062;	2279,25;	0,0;	0,0
588,4464111328125;	2911,75;	0,0;	0,0
588,5065307617188;	3682,5;	0,0;	0,0
588,5665893554688;	5164,75;	0,0;	0,0
588,6266479492188;	7564,25;	0,0;	0,0
588,6867065429688;	12173,5;	0,0;	0,0
588,7467041015625;	16383,75;	0,0;	0,0
588,8067626953125;	16383,75;	0,0;	0,0
588,8667602539062;	16383,75;	0,0;	0,0
588,9267578125;	16383,75;	0,0;	0,0
588,9867553710938;	16383,75;	0,0;	0,0
589,0467529296875;	9591,5;	0,0;	0,0
589,106689453125;	6822,25;	0,0;	0,0
589,1666259765625;	5915,0;	0,0;	0,0
589,2265625;	6378,0;	0,0;	0,0
589,2864379882812;	9068,75;	0,0;	0,0
589,3463745117188;	15368,75;	0,0;	0,0
589,4061889648438;	16383,75;	0,0;	0,0
589,466064453125;	16383,75;	0,0;	0,0
589,5259399414062;	16383,75;	0,0;	0,0
589,5857543945312;	11124,75;	0,0;	0,0
589,6455688476562;	6003,75;	0,0;	0,0
589,7053833007812;	3852,75;	0,0;	0,0
589,76513671875;	2937,5;	0,0;	0,0
589,824951171875;	2230,5;	0,0;	0,0
589,8847045898438;	1875,25;	0,0;	0,0
589,9443969726562;	1629,25;	0,0;	0,0
590,004150390625;	1516,75;	0,0;	0,0
590,0638427734375;	1440,25;	0,0;	0,0
590,12353515625;	1329,25;	0,0;	0,0
590,1832275390625;	1205,0;	0,0;	0,0
590,2428588867188;	1148,5;	0,0;	0,0
590,302490234375;	1115,75;	0,0;	0,0
590,3621215820312;	1050,0;	0,0;	0,0
590,4217529296875;	1113,5;	0,0;	0,0
590,4813842773438;	971,0;	0,0;	0,0
590,5409545898438;	943,25;	0,0;	0,0
590,6005249023438;	930,25;	0,0;	0,0
590,6600952148438;	890,0;	0,0;	0,0
590,7196044921875;	889,25;	0,0;	0,0
590,7791137695312;	854,0;	0,0;	0,0
590,8386840820312;	845,0;	0,0;	0,0
590,8981323242188;	825,5;	0,0;	0,0
590,9576416015625;	855,0;	0,0;	0,0
591,0170288085938;	856,0;	0,0;	0,0
591,0765380859375;	832,5;	0,0;	0,0
591,135986328125;	843,5;	0,0;	0,0
591,1953735351562;	896,25;	0,0;	0,0
591,2547607421875;	931,0;	0,0;	0,0
591,314208984375;	867,5;	0,0;	0,0
591,37353515625;	778,75;	0,0;	0,0
591,4329223632812;	758,75;	0,0;	0,0
591,4922485351562;	757,0;	0,0;	0,0
591,551513671875;	746,0;	0,0;	0,0
591,6109008789062;	701,25;	0,0;	0,0
591,670166015625;	748,75;	0,0;	0,0
591,7294921875;	725,75;	0,0;	0,0
591,7887573242188;	713,0;	0,0;	0,0
591,847900390625;	752,5;	0,0;	0,0
591,9071655273438;	739,0;	0,0;	0,0
591,9664306640625;	701,75;	0,0;	0,0
592,025634765625;	735,75;	0,0;	0,0
592,0847778320312;	723,5;	0,0;	0,0
592,1439819335938;	727,75;	0,0;	0,0
592,203125;	686,0;	0,0;	0,0
592,2622680664062;	705,75;	0,0;	0,0
592,3214111328125;	682,75;	0,0;	0,0
592,3804931640625;	679,75;	0,0;	0,0
592,4396362304688;	699,25;	0,0;	0,0
592,4987182617188;	725,5;	0,0;	0,0
592,5577392578125;	685,25;	0,0;	0,0
592,6167602539062;	715,75;	0,0;	0,0
592,6758422851562;	701,25;	0,0;	0,0
592,73486328125;	733,0;	0,0;	0,0
592,7938842773438;	712,25;	0,0;	0,0
592,8528442382812;	762,0;	0,0;	0,0
592,9118041992188;	744,25;	0,0;	0,0
592,9707641601562;	731,0;	0,0;	0,0
593,0297241210938;	679,0;	0,0;	0,0
593,0886840820312;	645,5;	0,0;	0,0
593,1475219726562;	650,5;	0,0;	0,0
593,2064819335938;	692,0;	0,0;	0,0
593,2652587890625;	677,0;	0,0;	0,0
593,32421875;	669,5;	0,0;	0,0
593,383056640625;	714,25;	0,0;	0,0
593,44189453125;	642,75;	0,0;	0,0
593,5006713867188;	642,0;	0,0;	0,0
593,5595703125;	614,5;	0,0;	0,0
593,6182861328125;	618,75;	0,0;	0,0
593,6770629882812;	629,0;	0,0;	0,0
593,73583984375;	623,25;	0,0;	0,0
593,7945556640625;	633,5;	0,0;	0,0
593,853271484375;	600,25;	0,0;	0,0
593,9119262695312;	600,25;	0,0;	0,0
593,970703125;	613,0;	0,0;	0,0
594,0293579101562;	602,5;	0,0;	0,0
594,0880126953125;	565,25;	0,0;	0,0
594,146728515625;	606,5;	0,0;	0,0
594,205322265625;	581,5;	0,0;	0,0
594,263916015625;	632,5;	0,0;	0,0
594,3225708007812;	565,75;	0,0;	0,0
594,3811645507812;	562,0;	0,0;	0,0
594,439697265625;	603,25;	0,0;	0,0
594,498291015625;	618,75;	0,0;	0,0
594,5567626953125;	576,25;	0,0;	0,0
594,6153564453125;	568,75;	0,0;	0,0
594,673828125;	563,5;	0,0;	0,0
594,7322998046875;	613,0;	0,0;	0,0
594,790771484375;	610,25;	0,0;	0,0
594,8492431640625;	617,0;	0,0;	0,0
594,90771484375;	585,75;	0,0;	0,0
594,9661254882812;	580,75;	0,0;	0,0
595,0245971679688;	588,0;	0,0;	0,0
595,0829467773438;	594,5;	0,0;	0,0
595,141357421875;	609,5;	0,0;	0,0
595,19970703125;	613,75;	0,0;	0,0
595,2581176757812;	578,25;	0,0;	0,0
595,3164672851562;	572,0;	0,0;	0,0
595,374755859375;	555,75;	0,0;	0,0
595,4330444335938;	588,25;	0,0;	0,0
595,4913330078125;	566,75;	0,0;	0,0
595,5496215820312;	566,0;	0,0;	0,0
595,60791015625;	568,5;	0,0;	0,0
595,6661987304688;	560,25;	0,0;	0,0
595,724365234375;	591,0;	0,0;	0,0
595,7825927734375;	553,75;	0,0;	0,0
595,8408203125;	585,5;	0,0;	0,0
595,8989868164062;	581,25;	0,0;	0,0
595,9572143554688;	530,5;	0,0;	0,0
596,0153198242188;	589,5;	0,0;	0,0
596,073486328125;	576,25;	0,0;	0,0
596,1315307617188;	566,25;	0,0;	0,0
596,1896362304688;	583,0;	0,0;	0,0
596,247802734375;	591,25;	0,0;	0,0
596,3058471679688;	564,75;	0,0;	0,0
596,3638916015625;	575,5;	0,0;	0,0
596,4219970703125;	565,5;	0,0;	0,0
596,47998046875;	562,0;	0,0;	0,0
596,5380249023438;	583,0;	0,0;	0,0
596,5960083007812;	598,25;	0,0;	0,0
596,6539916992188;	566,75;	0,0;	0,0
596,7119750976562;	550,75;	0,0;	0,0
596,7698364257812;	547,0;	0,0;	0,0
596,8278198242188;	561,0;	0,0;	0,0
596,8858032226562;	563,0;	0,0;	0,0
596,9436645507812;	535,25;	0,0;	0,0
597,0015869140625;	569,75;	0,0;	0,0
597,0595092773438;	584,5;	0,0;	0,0
597,1173095703125;	551,0;	0,0;	0,0
597,1751098632812;	542,5;	0,0;	0,0
597,2329711914062;	560,5;	0,0;	0,0
597,290771484375;	563,75;	0,0;	0,0
597,3486328125;	625,75;	0,0;	0,0
597,4063110351562;	595,0;	0,0;	0,0
597,4641723632812;	592,25;	0,0;	0,0
597,5219116210938;	612,75;	0,0;	0,0
597,57958984375;	574,25;	0,0;	0,0
597,6373291015625;	569,25;	0,0;	0,0
597,695068359375;	579,0;	0,0;	0,0
597,7527465820312;	562,0;	0,0;	0,0
597,8104248046875;	584,25;	0,0;	0,0
597,8681030273438;	531,0;	0,0;	0,0
597,9257202148438;	552,0;	0,0;	0,0
597,9833374023438;	525,0;	0,0;	0,0
598,0408935546875;	576,5;	0,0;	0,0
598,0985107421875;	580,0;	0,0;	0,0
598,1561279296875;	600,0;	0,0;	0,0
598,2136840820312;	634,5;	0,0;	0,0
598,271240234375;	618,0;	0,0;	0,0
598,3287353515625;	621,25;	0,0;	0,0
598,3862915039062;	614,5;	0,0;	0,0
598,44384765625;	572,5;	0,0;	0,0
598,5012817382812;	598,75;	0,0;	0,0
598,5587158203125;	611,0;	0,0;	0,0
598,6162109375;	513,5;	0,0;	0,0
598,673583984375;	565,25;	0,0;	0,0
598,7310791015625;	559,25;	0,0;	0,0
598,7885131835938;	595,75;	0,0;	0,0
598,8458251953125;	557,5;	0,0;	0,0
598,9032592773438;	503,75;	0,0;	0,0
598,9605712890625;	533,0;	0,0;	0,0
599,0179443359375;	525,5;	0,0;	0,0
599,0753173828125;	511,75;	0,0;	0,0
599,132568359375;	552,75;	0,0;	0,0
599,1898803710938;	529,75;	0,0;	0,0
599,2472534179688;	497,5;	0,0;	0,0
599,3043823242188;	500,25;	0,0;	0,0
599,3616943359375;	570,75;	0,0;	0,0
599,4189453125;	514,75;	0,0;	0,0
599,4761352539062;	534,75;	0,0;	0,0
599,5333251953125;	579,75;	0,0;	0,0
599,5905151367188;	518,5;	0,0;	0,0
599,647705078125;	528,75;	0,0;	0,0
599,7049560546875;	532,25;	0,0;	0,0
599,7620239257812;	515,25;	0,0;	0,0
599,8191528320312;	527,25;	0,0;	0,0
599,8762817382812;	559,75;	0,0;	0,0
599,933349609375;	523,25;	0,0;	0,0
599,9904174804688;	531,5;	0,0;	0,0
600,0475463867188;	539,5;	0,0;	0,0
600,1045532226562;	568,0;	0,0;	0,0
600,16162109375;	590,25;	0,0;	0,0
600,2186279296875;	591,0;	0,0;	0,0
600,2755737304688;	551,75;	0,0;	0,0
600,3326416015625;	532,75;	0,0;	0,0
600,3895874023438;	531,0;	0,0;	0,0
600,446533203125;	545,5;	0,0;	0,0
600,5034790039062;	544,5;	0,0;	0,0
600,5603637695312;	583,25;	0,0;	0,0
600,6172485351562;	559,75;	0,0;	0,0
600,6742553710938;	567,5;	0,0;	0,0
600,7310791015625;	575,25;	0,0;	0,0
600,7879028320312;	563,75;	0,0;	0,0
600,8447265625;	499,5;	0,0;	0,0
600,9015502929688;	516,75;	0,0;	0,0
600,9584350585938;	559,25;	0,0;	0,0
601,0151977539062;	526,0;	0,0;	0,0
601,0719604492188;	548,25;	0,0;	0,0
601,1287231445312;	517,25;	0,0;	0,0
601,185546875;	546,75;	0,0;	0,0
601,2422485351562;	532,0;	0,0;	0,0
601,2989501953125;	524,5;	0,0;	0,0
601,355712890625;	518,5;	0,0;	0,0
601,412353515625;	511,0;	0,0;	0,0
601,468994140625;	524,25;	0,0;	0,0
601,5256958007812;	528,0;	0,0;	0,0
601,5823364257812;	526,25;	0,0;	0,0
601,6389770507812;	516,75;	0,0;	0,0
601,695556640625;	502,5;	0,0;	0,0
601,7521362304688;	591,5;	0,0;	0,0
601,8087158203125;	598,5;	0,0;	0,0
601,8652954101562;	607,5;	0,0;	0,0
601,9218139648438;	608,75;	0,0;	0,0
601,9783935546875;	601,75;	0,0;	0,0
602,034912109375;	579,75;	0,0;	0,0
602,0913696289062;	604,75;	0,0;	0,0
602,1478271484375;	618,25;	0,0;	0,0
602,204345703125;	706,25;	0,0;	0,0
602,2608032226562;	718,25;	0,0;	0,0
602,3171997070312;	668,25;	0,0;	0,0
602,3736572265625;	585,75;	0,0;	0,0
602,4300537109375;	531,0;	0,0;	0,0
602,4864501953125;	531,5;	0,0;	0,0
602,5427856445312;	542,0;	0,0;	0,0
602,5991821289062;	549,5;	0,0;	0,0
602,655517578125;	567,75;	0,0;	0,0
602,7117919921875;	523,0;	0,0;	0,0
602,7681274414062;	561,25;	0,0;	0,0
602,824462890625;	533,5;	0,0;	0,0
602,8806762695312;	512,25;	0,0;	0,0
602,93701171875;	503,25;	0,0;	0,0
602,9932250976562;	520,0;	0,0;	0,0
603,0494384765625;	530,5;	0,0;	0,0
603,105712890625;	488,75;	0,0;	0,0
603,161865234375;	532,5;	0,0;	0,0
603,2180786132812;	506,5;	0,0;	0,0
603,2742309570312;	521,5;	0,0;	0,0
603,3303833007812;	507,75;	0,0;	0,0
603,3865356445312;	511,25;	0,0;	0,0
603,4426879882812;	530,25;	0,0;	0,0
603,498779296875;	488,25;	0,0;	0,0
603,5548706054688;	490,75;	0,0;	0,0
603,6109008789062;	491,25;	0,0;	0,0
603,6669311523438;	511,5;	0,0;	0,0
603,7230224609375;	491,0;	0,0;	0,0
603,7789916992188;	517,0;	0,0;	0,0
603,8350219726562;	514,25;	0,0;	0,0
603,8909912109375;	514,5;	0,0;	0,0
603,947021484375;	473,75;	0,0;	0,0
604,0030517578125;	504,0;	0,0;	0,0
604,0589599609375;	547,5;	0,0;	0,0
604,1148681640625;	501,5;	0,0;	0,0
604,1707763671875;	498,75;	0,0;	0,0
604,2266845703125;	529,25;	0,0;	0,0
604,2825317382812;	463,0;	0,0;	0,0
604,3385009765625;	518,25;	0,0;	0,0
604,394287109375;	500,25;	0,0;	0,0
604,4501342773438;	513,75;	0,0;	0,0
604,5059204101562;	480,5;	0,0;	0,0
604,5617065429688;	491,5;	0,0;	0,0
604,6175537109375;	528,0;	0,0;	0,0
604,67333984375;	497,0;	0,0;	0,0
604,7290649414062;	503,25;	0,0;	0,0
604,7847900390625;	515,25;	0,0;	0,0
604,8405151367188;	525,75;	0,0;	0,0
604,896240234375;	511,0;	0,0;	0,0
604,9519653320312;	522,0;	0,0;	0,0
605,007568359375;	484,5;	0,0;	0,0
605,0632934570312;	526,0;	0,0;	0,0
605,118896484375;	490,25;	0,0;	0,0
605,174560546875;	516,0;	0,0;	0,0
605,2301635742188;	523,5;	0,0;	0,0
605,2857666015625;	514,75;	0,0;	0,0
605,34130859375;	538,5;	0,0;	0,0
605,3969116210938;	524,0;	0,0;	0,0
605,4524536132812;	559,0;	0,0;	0,0
605,5079956054688;	551,25;	0,0;	0,0
605,5635375976562;	532,25;	0,0;	0,0
605,6190185546875;	530,75;	0,0;	0,0
605,674560546875;	513,0;	0,0;	0,0
605,7299194335938;	555,0;	0,0;	0,0
605,7854614257812;	489,0;	0,0;	0,0
605,8409423828125;	495,0;	0,0;	0,0
605,896240234375;	518,25;	0,0;	0,0
605,9517211914062;	523,0;	0,0;	0,0
606,0070190429688;	514,5;	0,0;	0,0
606,0625;	496,0;	0,0;	0,0
606,1178588867188;	515,5;	0,0;	0,0
606,1732177734375;	517,5;	0,0;	0,0
606,228515625;	493,5;	0,0;	0,0
606,2838745117188;	518,75;	0,0;	0,0
606,339111328125;	581,5;	0,0;	0,0
606,3944091796875;	682,25;	0,0;	0,0
606,44970703125;	671,25;	0,0;	0,0
606,5048828125;	575,25;	0,0;	0,0
606,5601806640625;	499,25;	0,0;	0,0
606,6153564453125;	497,25;	0,0;	0,0
606,6705322265625;	458,0;	0,0;	0,0
606,7257690429688;	495,0;	0,0;	0,0
606,781005859375;	467,5;	0,0;	0,0
606,8360595703125;	437,0;	0,0;	0,0
606,8912353515625;	443,5;	0,0;	0,0
606,9463500976562;	460,5;	0,0;	0,0
607,0014038085938;	515,0;	0,0;	0,0
607,0565795898438;	480,75;	0,0;	0,0
607,1116333007812;	497,5;	0,0;	0,0
607,1666870117188;	480,75;	0,0;	0,0
607,2216796875;	484,25;	0,0;	0,0
607,2767333984375;	492,5;	0,0;	0,0
607,331787109375;	456,25;	0,0;	0,0
607,38671875;	462,75;	0,0;	0,0
607,4417114257812;	479,25;	0,0;	0,0
607,4967041015625;	491,5;	0,0;	0,0
607,5515747070312;	483,75;	0,0;	0,0
607,6065673828125;	503,0;	0,0;	0,0
607,6615600585938;	543,25;	0,0;	0,0
607,7163696289062;	524,0;	0,0;	0,0
607,771240234375;	510,75;	0,0;	0,0
607,8261108398438;	486,75;	0,0;	0,0
607,8809814453125;	449,5;	0,0;	0,0
607,935791015625;	468,5;	0,0;	0,0
607,9906005859375;	511,0;	0,0;	0,0
608,0454711914062;	477,75;	0,0;	0,0
608,1001586914062;	476,25;	0,0;	0,0
608,1549682617188;	470,75;	0,0;	0,0
608,2097778320312;	504,75;	0,0;	0,0
608,2645263671875;	446,5;	0,0;	0,0
608,3191528320312;	478,75;	0,0;	0,0
608,3739013671875;	465,0;	0,0;	0,0
608,4285888671875;	457,25;	0,0;	0,0
608,4832153320312;	466,75;	0,0;	0,0
608,5379638671875;	500,25;	0,0;	0,0
608,5925903320312;	485,25;	0,0;	0,0
608,647216796875;	490,0;	0,0;	0,0
608,7017822265625;	518,0;	0,0;	0,0
608,7564086914062;	494,75;	0,0;	0,0
608,8109741210938;	499,5;	0,0;	0,0
608,8656005859375;	484,0;	0,0;	0,0
608,9201049804688;	504,0;	0,0;	0,0
608,974609375;	485,0;	0,0;	0,0
609,0291137695312;	511,25;	0,0;	0,0
609,0836181640625;	485,25;	0,0;	0,0
609,1381225585938;	481,5;	0,0;	0,0
609,1925659179688;	469,0;	0,0;	0,0
609,2470092773438;	476,5;	0,0;	0,0
609,3014526367188;	471,0;	0,0;	0,0
609,3558349609375;	519,0;	0,0;	0,0
609,4102783203125;	529,75;	0,0;	0,0
609,4646606445312;	542,0;	0,0;	0,0
609,51904296875;	535,75;	0,0;	0,0
609,5734252929688;	552,0;	0,0;	0,0
609,627685546875;	528,0;	0,0;	0,0
609,6820678710938;	559,75;	0,0;	0,0
609,7363891601562;	537,5;	0,0;	0,0
609,7906494140625;	515,75;	0,0;	0,0
609,844970703125;	508,0;	0,0;	0,0
609,899169921875;	556,5;	0,0;	0,0
609,953369140625;	565,25;	0,0;	0,0
610,0076293945312;	643,25;	0,0;	0,0
610,0618286132812;	817,75;	0,0;	0,0
610,1160888671875;	1072,0;	0,0;	0,0
610,170166015625;	1231,25;	0,0;	0,0
610,224365234375;	1117,5;	0,0;	0,0
610,2785034179688;	882,5;	0,0;	0,0
610,3327026367188;	619,25;	0,0;	0,0
610,3867797851562;	521,5;	0,0;	0,0
610,4408569335938;	486,0;	0,0;	0,0
610,4949340820312;	515,25;	0,0;	0,0
610,549072265625;	534,75;	0,0;	0,0
610,6030883789062;	527,5;	0,0;	0,0
610,6571044921875;	514,75;	0,0;	0,0
610,7111206054688;	490,0;	0,0;	0,0
610,7650756835938;	515,0;	0,0;	0,0
610,819091796875;	492,75;	0,0;	0,0
610,8731079101562;	484,75;	0,0;	0,0
610,9270629882812;	528,25;	0,0;	0,0
610,98095703125;	497,0;	0,0;	0,0
611,034912109375;	523,0;	0,0;	0,0
611,0887451171875;	513,75;	0,0;	0,0
611,1427001953125;	474,25;	0,0;	0,0
611,1965942382812;	524,5;	0,0;	0,0
611,2503662109375;	512,5;	0,0;	0,0
611,30419921875;	456,5;	0,0;	0,0
611,3580322265625;	515,75;	0,0;	0,0
611,411865234375;	509,5;	0,0;	0,0
611,4656982421875;	532,25;	0,0;	0,0
611,5194702148438;	518,75;	0,0;	0,0
611,5731811523438;	502,75;	0,0;	0,0
611,626953125;	491,25;	0,0;	0,0
611,6806640625;	507,75;	0,0;	0,0
611,734375;	516,5;	0,0;	0,0
611,7880859375;	515,25;	0,0;	0,0
611,8417358398438;	526,25;	0,0;	0,0
611,8953857421875;	589,0;	0,0;	0,0
611,9490356445312;	659,25;	0,0;	0,0
612,002685546875;	868,75;	0,0;	0,0
612,0562744140625;	1117,0;	0,0;	0,0
612,1099243164062;	1125,5;	0,0;	0,0
612,1635131835938;	820,0;	0,0;	0,0
612,2171020507812;	606,0;	0,0;	0,0
612,2705688476562;	539,25;	0,0;	0,0
612,3241577148438;	544,5;	0,0;	0,0
612,3776245117188;	512,25;	0,0;	0,0
612,4310913085938;	541,5;	0,0;	0,0
612,484619140625;	545,0;	0,0;	0,0
612,5380859375;	514,5;	0,0;	0,0
612,591552734375;	559,75;	0,0;	0,0
612,64501953125;	513,0;	0,0;	0,0
612,6983642578125;	522,75;	0,0;	0,0
612,7518310546875;	529,5;	0,0;	0,0
612,80517578125;	519,75;	0,0;	0,0
612,8585205078125;	511,75;	0,0;	0,0
612,9119262695312;	488,5;	0,0;	0,0
612,9652709960938;	529,75;	0,0;	0,0
613,0185546875;	512,25;	0,0;	0,0
613,0718383789062;	494,25;	0,0;	0,0
613,1251220703125;	503,75;	0,0;	0,0
613,1784057617188;	515,25;	0,0;	0,0
613,2317504882812;	516,75;	0,0;	0,0
613,2849731445312;	529,0;	0,0;	0,0
613,338134765625;	538,0;	0,0;	0,0
613,391357421875;	582,75;	0,0;	0,0
613,4445190429688;	678,0;	0,0;	0,0
613,4977416992188;	930,25;	0,0;	0,0
613,5509033203125;	952,5;	0,0;	0,0
613,6040649414062;	900,0;	0,0;	0,0
613,6572265625;	722,25;	0,0;	0,0
613,7102661132812;	624,0;	0,0;	0,0
613,7633666992188;	523,5;	0,0;	0,0
613,8164672851562;	565,75;	0,0;	0,0
613,8695068359375;	495,5;	0,0;	0,0
613,922607421875;	544,5;	0,0;	0,0
613,9755859375;	612,0;	0,0;	0,0
614,028564453125;	622,75;	0,0;	0,0
614,0816040039062;	575,75;	0,0;	0,0
614,1346435546875;	535,75;	0,0;	0,0
614,1875610351562;	497,25;	0,0;	0,0
614,2405395507812;	517,0;	0,0;	0,0
614,2933959960938;	534,75;	0,0;	0,0
614,3463745117188;	511,75;	0,0;	0,0
614,3992919921875;	517,25;	0,0;	0,0
614,4521484375;	515,0;	0,0;	0,0
614,5050048828125;	520,5;	0,0;	0,0
614,5578002929688;	540,75;	0,0;	0,0
614,6106567382812;	545,75;	0,0;	0,0
614,6635131835938;	543,5;	0,0;	0,0
614,7163696289062;	526,5;	0,0;	0,0
614,7691040039062;	520,75;	0,0;	0,0
614,8218994140625;	529,75;	0,0;	0,0
614,8746337890625;	587,25;	0,0;	0,0
614,9273681640625;	511,25;	0,0;	0,0
614,9801025390625;	559,25;	0,0;	0,0
615,0327758789062;	507,25;	0,0;	0,0
615,0855102539062;	561,75;	0,0;	0,0
615,1381225585938;	559,0;	0,0;	0,0
615,1908569335938;	538,5;	0,0;	0,0
615,2434692382812;	592,5;	0,0;	0,0
615,2960815429688;	601,0;	0,0;	0,0
615,3486938476562;	609,25;	0,0;	0,0
615,4012451171875;	565,0;	0,0;	0,0
615,453857421875;	564,75;	0,0;	0,0
615,5064697265625;	558,25;	0,0;	0,0
615,5589599609375;	558,5;	0,0;	0,0
615,6114501953125;	603,0;	0,0;	0,0
615,6640014648438;	605,5;	0,0;	0,0
615,7164306640625;	588,25;	0,0;	0,0
615,7689819335938;	610,0;	0,0;	0,0
615,8214111328125;	654,75;	0,0;	0,0
615,8738403320312;	765,5;	0,0;	0,0
615,9263305664062;	952,75;	0,0;	0,0
615,9786987304688;	1221,5;	0,0;	0,0
616,0310668945312;	1499,0;	0,0;	0,0
616,08349609375;	1634,25;	0,0;	0,0
616,1358642578125;	1262,25;	0,0;	0,0
616,1881713867188;	822,75;	0,0;	0,0
616,2405395507812;	608,25;	0,0;	0,0
616,2928466796875;	611,5;	0,0;	0,0
616,3450927734375;	623,0;	0,0;	0,0
616,3974609375;	619,5;	0,0;	0,0
616,4496459960938;	583,75;	0,0;	0,0
616,501953125;	618,0;	0,0;	0,0
616,5540771484375;	622,25;	0,0;	0,0
616,6063842773438;	604,0;	0,0;	0,0
616,6585693359375;	591,75;	0,0;	0,0
616,7107543945312;	645,25;	0,0;	0,0
616,7628784179688;	697,0;	0,0;	0,0
616,8150634765625;	732,0;	0,0;	0,0
616,8671264648438;	702,0;	0,0;	0,0
616,9193115234375;	637,75;	0,0;	0,0
616,971435546875;	600,5;	0,0;	0,0
617,0234985351562;	577,0;	0,0;	0,0
617,0756225585938;	584,0;	0,0;	0,0
617,1275634765625;	597,5;	0,0;	0,0
617,1796875;	577,25;	0,0;	0,0
617,231689453125;	572,25;	0,0;	0,0
617,28369140625;	535,0;	0,0;	0,0
617,3356323242188;	574,0;	0,0;	0,0
617,3876953125;	563,75;	0,0;	0,0
617,4395751953125;	538,0;	0,0;	0,0
617,4915161132812;	571,0;	0,0;	0,0
617,54345703125;	570,0;	0,0;	0,0
617,5953369140625;	549,5;	0,0;	0,0
617,6472778320312;	570,75;	0,0;	0,0
617,6990966796875;	586,0;	0,0;	0,0
617,7509765625;	583,0;	0,0;	0,0
617,8027954101562;	562,0;	0,0;	0,0
617,8546142578125;	576,75;	0,0;	0,0
617,906494140625;	588,75;	0,0;	0,0
617,9581909179688;	575,0;	0,0;	0,0
618,010009765625;	627,5;	0,0;	0,0
618,061767578125;	559,0;	0,0;	0,0
618,113525390625;	586,25;	0,0;	0,0
618,1652221679688;	584,75;	0,0;	0,0
618,2169799804688;	578,0;	0,0;	0,0
618,2686157226562;	571,75;	0,0;	0,0
618,3203125;	545,5;	0,0;	0,0
618,3720092773438;	609,5;	0,0;	0,0
618,423583984375;	577,25;	0,0;	0,0
618,4752197265625;	571,5;	0,0;	0,0
618,5267944335938;	538,25;	0,0;	0,0
618,5784301757812;	566,75;	0,0;	0,0
618,6300048828125;	568,75;	0,0;	0,0
618,681640625;	567,0;	0,0;	0,0
618,7330932617188;	575,25;	0,0;	0,0
618,7846069335938;	569,0;	0,0;	0,0
618,8361206054688;	588,75;	0,0;	0,0
618,8876342773438;	625,25;	0,0;	0,0
618,9391479492188;	681,0;	0,0;	0,0
618,9905395507812;	809,0;	0,0;	0,0
619,0419921875;	790,0;	0,0;	0,0
619,0933837890625;	650,75;	0,0;	0,0
619,1448364257812;	586,5;	0,0;	0,0
619,1962890625;	591,0;	0,0;	0,0
619,2476196289062;	543,5;	0,0;	0,0
619,2990112304688;	519,5;	0,0;	0,0
619,3504028320312;	529,75;	0,0;	0,0
619,4016723632812;	564,25;	0,0;	0,0
619,4530029296875;	548,5;	0,0;	0,0
619,5043334960938;	536,25;	0,0;	0,0
619,5555419921875;	560,25;	0,0;	0,0
619,6068115234375;	548,75;	0,0;	0,0
619,6580810546875;	545,0;	0,0;	0,0
619,7092895507812;	537,25;	0,0;	0,0
619,7605590820312;	585,5;	0,0;	0,0
619,8117065429688;	544,5;	0,0;	0,0
619,8628540039062;	585,25;	0,0;	0,0
619,9140014648438;	580,0;	0,0;	0,0
619,9652099609375;	570,0;	0,0;	0,0
620,0162963867188;	578,75;	0,0;	0,0
620,0675048828125;	570,75;	0,0;	0,0
620,1185913085938;	575,0;	0,0;	0,0
620,169677734375;	588,5;	0,0;	0,0
620,2206420898438;	558,0;	0,0;	0,0
620,2717895507812;	582,25;	0,0;	0,0
620,3228149414062;	590,75;	0,0;	0,0
620,373779296875;	561,5;	0,0;	0,0
620,4248046875;	567,75;	0,0;	0,0
620,4757690429688;	576,0;	0,0;	0,0
620,5267333984375;	572,0;	0,0;	0,0
620,5777587890625;	583,75;	0,0;	0,0
620,628662109375;	565,25;	0,0;	0,0
620,6795654296875;	591,75;	0,0;	0,0
620,73046875;	553,5;	0,0;	0,0
620,7813110351562;	570,5;	0,0;	0,0
620,8322143554688;	528,75;	0,0;	0,0
620,883056640625;	582,5;	0,0;	0,0
620,933837890625;	564,25;	0,0;	0,0
620,9846801757812;	555,75;	0,0;	0,0
621,0354614257812;	519,25;	0,0;	0,0
621,0863037109375;	576,25;	0,0;	0,0
621,1370849609375;	573,25;	0,0;	0,0
621,1878662109375;	587,0;	0,0;	0,0
621,2385864257812;	550,75;	0,0;	0,0
621,2892456054688;	566,5;	0,0;	0,0
621,3399047851562;	566,0;	0,0;	0,0
621,3906860351562;	568,5;	0,0;	0,0
621,4413452148438;	526,5;	0,0;	0,0
621,491943359375;	545,25;	0,0;	0,0
621,5426025390625;	520,25;	0,0;	0,0
621,5931396484375;	559,0;	0,0;	0,0
621,643798828125;	574,25;	0,0;	0,0
621,6943969726562;	559,75;	0,0;	0,0
621,7449951171875;	610,5;	0,0;	0,0
621,7955322265625;	581,0;	0,0;	0,0
621,8460693359375;	591,5;	0,0;	0,0
621,8965454101562;	575,0;	0,0;	0,0
621,9470825195312;	553,75;	0,0;	0,0
621,9976196289062;	560,75;	0,0;	0,0
622,0480346679688;	534,0;	0,0;	0,0
622,0985107421875;	559,75;	0,0;	0,0
622,1488647460938;	565,0;	0,0;	0,0
622,1993408203125;	571,75;	0,0;	0,0
622,249755859375;	599,25;	0,0;	0,0
622,3001708984375;	586,5;	0,0;	0,0
622,3505249023438;	537,25;	0,0;	0,0
622,4008178710938;	579,0;	0,0;	0,0
622,451171875;	571,75;	0,0;	0,0
622,5015258789062;	593,5;	0,0;	0,0
622,5518798828125;	581,75;	0,0;	0,0
622,6021118164062;	591,5;	0,0;	0,0
622,6524047851562;	557,0;	0,0;	0,0
622,7025756835938;	584,25;	0,0;	0,0
622,7528686523438;	616,75;	0,0;	0,0
622,8031616210938;	631,25;	0,0;	0,0
622,853271484375;	694,25;	0,0;	0,0
622,9034423828125;	856,5;	0,0;	0,0
622,95361328125;	840,5;	0,0;	0,0
623,0037841796875;	732,25;	0,0;	0,0
623,053955078125;	630,0;	0,0;	0,0
623,1040649414062;	598,5;	0,0;	0,0
623,1541137695312;	597,75;	0,0;	0,0
623,2042236328125;	601,75;	0,0;	0,0
623,2542724609375;	555,0;	0,0;	0,0
623,3043823242188;	568,0;	0,0;	0,0
623,3544311523438;	564,25;	0,0;	0,0
623,4044189453125;	550,25;	0,0;	0,0
623,4544677734375;	557,25;	0,0;	0,0
623,50439453125;	564,5;	0,0;	0,0
623,5543823242188;	554,5;	0,0;	0,0
623,6043701171875;	571,0;	0,0;	0,0
623,6543579101562;	505,0;	0,0;	0,0
623,7042236328125;	548,5;	0,0;	0,0
623,754150390625;	595,25;	0,0;	0,0
623,803955078125;	511,25;	0,0;	0,0
623,8538818359375;	547,5;	0,0;	0,0
623,9037475585938;	545,5;	0,0;	0,0
623,9535522460938;	584,75;	0,0;	0,0
624,0033569335938;	541,5;	0,0;	0,0
624,0531616210938;	529,0;	0,0;	0,0
624,1029663085938;	535,75;	0,0;	0,0
624,1527709960938;	579,25;	0,0;	0,0
624,2025756835938;	552,75;	0,0;	0,0
624,2522583007812;	562,25;	0,0;	0,0
624,3019409179688;	568,0;	0,0;	0,0
624,3516235351562;	638,25;	0,0;	0,0
624,4013671875;	623,0;	0,0;	0,0
624,4510498046875;	635,25;	0,0;	0,0
624,5006713867188;	679,5;	0,0;	0,0
624,5503540039062;	638,5;	0,0;	0,0
624,599853515625;	585,0;	0,0;	0,0
624,6495361328125;	585,0;	0,0;	0,0
624,6991577148438;	556,5;	0,0;	0,0
624,7486572265625;	539,25;	0,0;	0,0
624,7982177734375;	592,75;	0,0;	0,0
624,8477172851562;	547,5;	0,0;	0,0
624,8972778320312;	513,5;	0,0;	0,0
624,94677734375;	575,75;	0,0;	0,0
624,9962768554688;	562,0;	0,0;	0,0
625,0457763671875;	616,25;	0,0;	0,0
625,09521484375;	712,75;	0,0;	0,0
625,1446533203125;	723,25;	0,0;	0,0
625,194091796875;	611,75;	0,0;	0,0
625,2434692382812;	611,0;	0,0;	0,0
625,2928466796875;	557,0;	0,0;	0,0
625,3422241210938;	565,25;	0,0;	0,0
625,3914794921875;	556,5;	0,0;	0,0
625,44091796875;	527,25;	0,0;	0,0
625,490234375;	546,5;	0,0;	0,0
625,53955078125;	532,5;	0,0;	0,0
625,5888061523438;	513,0;	0,0;	0,0
625,6380615234375;	529,25;	0,0;	0,0
625,687255859375;	517,5;	0,0;	0,0
625,736572265625;	535,25;	0,0;	0,0
625,7858276367188;	0,0;	0,0;	0,0
