0.0	1.0
Integration time [ms]:	1.05
Averaging Nr. [scans]:1
Smoothing Nr. [pixels]:0
Data measured with spectrometer [name]:b'1703273U8'
Wave	;Sample	;Dark	;Reference	;Scope	
[nm]	;[counts]	;[counts]	;[counts]	
 
250,49510192871094;	153,75;	0,0;	0,0
250,5340576171875;	160,0;	0,0;	0,0
250,572998046875;	147,0;	0,0;	0,0
250,61192321777344;	157,5;	0,0;	0,0
250,65086364746094;	152,25;	0,0;	0,0
250,68978881835938;	139,75;	0,0;	0,0
250,7287139892578;	160,5;	0,0;	0,0
250,7676239013672;	157,5;	0,0;	0,0
250,80653381347656;	169,25;	0,0;	0,0
250,8454132080078;	150,5;	0,0;	0,0
250,8843231201172;	174,25;	0,0;	0,0
250,92320251464844;	160,75;	0,0;	0,0
250,96209716796875;	156,25;	0,0;	0,0
251,00096130371094;	193,0;	0,0;	0,0
251,0398406982422;	284,25;	0,0;	0,0
251,0786895751953;	264,0;	0,0;	0,0
251,1175537109375;	311,25;	0,0;	0,0
251,15640258789062;	360,0;	0,0;	0,0
251,19525146484375;	234,0;	0,0;	0,0
251,2340850830078;	199,5;	0,0;	0,0
251,2729034423828;	170,0;	0,0;	0,0
251,31173706054688;	200,0;	0,0;	0,0
251,35055541992188;	189,0;	0,0;	0,0
251,38937377929688;	283,5;	0,0;	0,0
251,4281768798828;	259,25;	0,0;	0,0
251,46697998046875;	211,5;	0,0;	0,0
251,50576782226562;	186,5;	0,0;	0,0
251,5445556640625;	248,0;	0,0;	0,0
251,58334350585938;	274,75;	0,0;	0,0
251,6221160888672;	238,0;	0,0;	0,0
251,660888671875;	275,25;	0,0;	0,0
251,6996612548828;	318,75;	0,0;	0,0
251,7384033203125;	412,0;	0,0;	0,0
251,7771453857422;	501,25;	0,0;	0,0
251,81590270996094;	348,0;	0,0;	0,0
251,85462951660156;	360,5;	0,0;	0,0
251,8933563232422;	327,25;	0,0;	0,0
251,93206787109375;	239,5;	0,0;	0,0
251,97079467773438;	204,5;	0,0;	0,0
252,00950622558594;	231,5;	0,0;	0,0
252,0482177734375;	307,75;	0,0;	0,0
252,0869140625;	364,0;	0,0;	0,0
252,1256103515625;	365,75;	0,0;	0,0
252,16429138183594;	421,75;	0,0;	0,0
252,20297241210938;	637,25;	0,0;	0,0
252,2416534423828;	1019,25;	0,0;	0,0
252,2803192138672;	680,5;	0,0;	0,0
252,31898498535156;	466,25;	0,0;	0,0
252,35765075683594;	482,75;	0,0;	0,0
252,3962860107422;	471,5;	0,0;	0,0
252,4349365234375;	464,5;	0,0;	0,0
252,4735565185547;	707,25;	0,0;	0,0
252,51219177246094;	779,5;	0,0;	0,0
252,5508270263672;	555,75;	0,0;	0,0
252,58944702148438;	693,75;	0,0;	0,0
252,62803649902344;	482,75;	0,0;	0,0
252,66665649414062;	603,0;	0,0;	0,0
252,70526123046875;	760,25;	0,0;	0,0
252,7438507080078;	461,75;	0,0;	0,0
252,78244018554688;	344,25;	0,0;	0,0
252,8209991455078;	471,75;	0,0;	0,0
252,8595733642578;	782,0;	0,0;	0,0
252,8981475830078;	1011,5;	0,0;	0,0
252,93670654296875;	744,25;	0,0;	0,0
252,97528076171875;	410,5;	0,0;	0,0
253,01382446289062;	290,75;	0,0;	0,0
253,05235290527344;	271,5;	0,0;	0,0
253,09088134765625;	252,25;	0,0;	0,0
253,12942504882812;	215,5;	0,0;	0,0
253,16795349121094;	245,75;	0,0;	0,0
253,2064666748047;	256,25;	0,0;	0,0
253,24497985839844;	333,75;	0,0;	0,0
253,28347778320312;	527,0;	0,0;	0,0
253,32196044921875;	780,25;	0,0;	0,0
253,36045837402344;	622,75;	0,0;	0,0
253,39895629882812;	643,5;	0,0;	0,0
253,43743896484375;	460,25;	0,0;	0,0
253,4759063720703;	447,5;	0,0;	0,0
253,5143585205078;	640,0;	0,0;	0,0
253,55282592773438;	477,25;	0,0;	0,0
253,59127807617188;	558,75;	0,0;	0,0
253,62974548339844;	929,5;	0,0;	0,0
253,66818237304688;	822,25;	0,0;	0,0
253,7065887451172;	492,0;	0,0;	0,0
253,74502563476562;	429,0;	0,0;	0,0
253,78346252441406;	664,25;	0,0;	0,0
253,82188415527344;	1054,25;	0,0;	0,0
253,8602752685547;	1220,5;	0,0;	0,0
253,89869689941406;	490,0;	0,0;	0,0
253,93707275390625;	320,0;	0,0;	0,0
253,9754638671875;	339,5;	0,0;	0,0
254,01385498046875;	539,5;	0,0;	0,0
254,05223083496094;	707,75;	0,0;	0,0
254,0906219482422;	539,5;	0,0;	0,0
254,1289520263672;	492,0;	0,0;	0,0
254,16732788085938;	585,75;	0,0;	0,0
254,2056884765625;	384,75;	0,0;	0,0
254,2440185546875;	369,25;	0,0;	0,0
254,28236389160156;	507,75;	0,0;	0,0
254,32070922851562;	558,5;	0,0;	0,0
254,3590087890625;	501,25;	0,0;	0,0
254,3973388671875;	382,75;	0,0;	0,0
254,4356689453125;	439,5;	0,0;	0,0
254,47396850585938;	499,25;	0,0;	0,0
254,5122833251953;	481,75;	0,0;	0,0
254,55056762695312;	558,0;	0,0;	0,0
254,58885192871094;	599,25;	0,0;	0,0
254,62713623046875;	507,75;	0,0;	0,0
254,6654052734375;	356,5;	0,0;	0,0
254,7036895751953;	322,25;	0,0;	0,0
254,741943359375;	307,5;	0,0;	0,0
254,7801971435547;	415,5;	0,0;	0,0
254,8184356689453;	575,75;	0,0;	0,0
254,856689453125;	659,25;	0,0;	0,0
254,8949432373047;	869,0;	0,0;	0,0
254,93316650390625;	788,75;	0,0;	0,0
254,97140502929688;	586,25;	0,0;	0,0
255,0095977783203;	464,75;	0,0;	0,0
255,04782104492188;	401,5;	0,0;	0,0
255,08602905273438;	263,5;	0,0;	0,0
255,12423706054688;	199,75;	0,0;	0,0
255,16241455078125;	194,5;	0,0;	0,0
255,20062255859375;	193,75;	0,0;	0,0
255,23878479003906;	216,75;	0,0;	0,0
255,27696228027344;	224,75;	0,0;	0,0
255,31512451171875;	185,75;	0,0;	0,0
255,35328674316406;	181,75;	0,0;	0,0
255,39144897460938;	200,25;	0,0;	0,0
255,42958068847656;	201,75;	0,0;	0,0
255,46774291992188;	269,75;	0,0;	0,0
255,50587463378906;	225,25;	0,0;	0,0
255,54400634765625;	196,75;	0,0;	0,0
255,58212280273438;	187,5;	0,0;	0,0
255,6202392578125;	200,75;	0,0;	0,0
255,65835571289062;	197,25;	0,0;	0,0
255,6964569091797;	198,0;	0,0;	0,0
255,7345428466797;	192,25;	0,0;	0,0
255,77264404296875;	187,75;	0,0;	0,0
255,81072998046875;	189,75;	0,0;	0,0
255,84881591796875;	183,0;	0,0;	0,0
255,8868865966797;	218,5;	0,0;	0,0
255,92494201660156;	277,0;	0,0;	0,0
255,96299743652344;	327,75;	0,0;	0,0
256,00103759765625;	305,75;	0,0;	0,0
256,0390930175781;	226,5;	0,0;	0,0
256,0771484375;	234,75;	0,0;	0,0
256,1152038574219;	329,5;	0,0;	0,0
256,1531982421875;	563,75;	0,0;	0,0
256,19122314453125;	1080,75;	0,0;	0,0
256,229248046875;	1197,25;	0,0;	0,0
256,2672424316406;	672,75;	0,0;	0,0
256,3052673339844;	878,75;	0,0;	0,0
256,3432312011719;	442,75;	0,0;	0,0
256,3812561035156;	204,75;	0,0;	0,0
256,4192199707031;	192,5;	0,0;	0,0
256,4571838378906;	187,25;	0,0;	0,0
256,49517822265625;	184,25;	0,0;	0,0
256,5331115722656;	207,25;	0,0;	0,0
256,57110595703125;	264,25;	0,0;	0,0
256,6090087890625;	413,25;	0,0;	0,0
256,64697265625;	536,0;	0,0;	0,0
256,6849060058594;	334,5;	0,0;	0,0
256,72283935546875;	207,5;	0,0;	0,0
256,76080322265625;	207,0;	0,0;	0,0
256,7986755371094;	267,0;	0,0;	0,0
256,83660888671875;	192,5;	0,0;	0,0
256,87451171875;	208,25;	0,0;	0,0
256,91241455078125;	214,75;	0,0;	0,0
256,9503173828125;	226,5;	0,0;	0,0
256,9881896972656;	284,5;	0,0;	0,0
257,02606201171875;	353,75;	0,0;	0,0
257,06396484375;	277,0;	0,0;	0,0
257,101806640625;	180,75;	0,0;	0,0
257,1396789550781;	184,75;	0,0;	0,0
257,1775207519531;	169,25;	0,0;	0,0
257,2153625488281;	190,75;	0,0;	0,0
257,2532043457031;	224,5;	0,0;	0,0
257,291015625;	232,25;	0,0;	0,0
257,3288879394531;	229,25;	0,0;	0,0
257,3666687011719;	355,0;	0,0;	0,0
257,404541015625;	496,75;	0,0;	0,0
257,44232177734375;	255,75;	0,0;	0,0
257,4801330566406;	245,5;	0,0;	0,0
257,5179138183594;	285,0;	0,0;	0,0
257,5556945800781;	481,0;	0,0;	0,0
257,593505859375;	457,75;	0,0;	0,0
257,6312561035156;	352,25;	0,0;	0,0
257,6690673828125;	356,75;	0,0;	0,0
257,7068176269531;	339,5;	0,0;	0,0
257,7445373535156;	503,0;	0,0;	0,0
257,7823181152344;	347,75;	0,0;	0,0
257,8200378417969;	201,0;	0,0;	0,0
257,8577880859375;	186,75;	0,0;	0,0
257,8955383300781;	209,25;	0,0;	0,0
257,9332275390625;	164,5;	0,0;	0,0
257,9709777832031;	170,75;	0,0;	0,0
258,0086975097656;	175,5;	0,0;	0,0
258,04638671875;	180,75;	0,0;	0,0
258,0840759277344;	207,5;	0,0;	0,0
258,1217956542969;	258,75;	0,0;	0,0
258,15948486328125;	342,25;	0,0;	0,0
258,1971435546875;	580,25;	0,0;	0,0
258,23486328125;	575,25;	0,0;	0,0
258,2724914550781;	249,25;	0,0;	0,0
258,3101806640625;	209,25;	0,0;	0,0
258,3478088378906;	232,0;	0,0;	0,0
258,3854675292969;	331,0;	0,0;	0,0
258,423095703125;	406,5;	0,0;	0,0
258,4607238769531;	413,5;	0,0;	0,0
258,49835205078125;	761,0;	0,0;	0,0
258,5360107421875;	1575,5;	0,0;	0,0
258,5736083984375;	1101,5;	0,0;	0,0
258,6112060546875;	319,75;	0,0;	0,0
258,6488037109375;	228,25;	0,0;	0,0
258,6864013671875;	226,0;	0,0;	0,0
258,7239990234375;	276,25;	0,0;	0,0
258,7615661621094;	407,25;	0,0;	0,0
258,7991638183594;	277,75;	0,0;	0,0
258,83673095703125;	212,0;	0,0;	0,0
258,8742980957031;	203,5;	0,0;	0,0
258,9118347167969;	178,5;	0,0;	0,0
258,9494323730469;	183,5;	0,0;	0,0
258,9869689941406;	202,25;	0,0;	0,0
259,02447509765625;	230,0;	0,0;	0,0
259,06201171875;	357,25;	0,0;	0,0
259,09954833984375;	623,75;	0,0;	0,0
259,1370544433594;	527,75;	0,0;	0,0
259,174560546875;	283,5;	0,0;	0,0
259,2120666503906;	420,5;	0,0;	0,0
259,24957275390625;	469,0;	0,0;	0,0
259,28704833984375;	351,25;	0,0;	0,0
259,3245544433594;	506,75;	0,0;	0,0
259,3620300292969;	369,75;	0,0;	0,0
259,3995361328125;	198,75;	0,0;	0,0
259,4369812011719;	188,0;	0,0;	0,0
259,47442626953125;	195,0;	0,0;	0,0
259,51190185546875;	196,25;	0,0;	0,0
259,5493469238281;	198,25;	0,0;	0,0
259,5867919921875;	211,75;	0,0;	0,0
259,62420654296875;	212,0;	0,0;	0,0
259,66162109375;	260,5;	0,0;	0,0
259,6990661621094;	352,0;	0,0;	0,0
259,7364807128906;	732,5;	0,0;	0,0
259,7738952636719;	1641,25;	0,0;	0,0
259,8113098144531;	2035,0;	0,0;	0,0
259,8486633300781;	1501,25;	0,0;	0,0
259,88604736328125;	2624,0;	0,0;	0,0
259,9234313964844;	2120,25;	0,0;	0,0
259,9608154296875;	580,0;	0,0;	0,0
259,9981994628906;	298,0;	0,0;	0,0
260,0355529785156;	231,5;	0,0;	0,0
260,0729064941406;	220,0;	0,0;	0,0
260,1102600097656;	204,0;	0,0;	0,0
260,1476135253906;	195,5;	0,0;	0,0
260,1849365234375;	174,0;	0,0;	0,0
260,2222595214844;	177,25;	0,0;	0,0
260,25958251953125;	196,0;	0,0;	0,0
260,2969055175781;	191,0;	0,0;	0,0
260,334228515625;	195,25;	0,0;	0,0
260,37152099609375;	188,5;	0,0;	0,0
260,4088439941406;	237,0;	0,0;	0,0
260,44610595703125;	280,5;	0,0;	0,0
260,4833679199219;	371,0;	0,0;	0,0
260,52069091796875;	462,0;	0,0;	0,0
260,5579528808594;	396,25;	0,0;	0,0
260,5952453613281;	546,0;	0,0;	0,0
260,6324462890625;	1111,75;	0,0;	0,0
260,66973876953125;	1851,0;	0,0;	0,0
260,70697021484375;	786,5;	0,0;	0,0
260,7441711425781;	275,5;	0,0;	0,0
260,78143310546875;	229,5;	0,0;	0,0
260,81866455078125;	243,75;	0,0;	0,0
260,85589599609375;	234,0;	0,0;	0,0
260,8930969238281;	265,75;	0,0;	0,0
260,9302978515625;	235,75;	0,0;	0,0
260,967529296875;	242,75;	0,0;	0,0
261,0046691894531;	275,75;	0,0;	0,0
261,0419006347656;	391,5;	0,0;	0,0
261,0790710449219;	651,25;	0,0;	0,0
261,1162109375;	1184,75;	0,0;	0,0
261,1534118652344;	1913,75;	0,0;	0,0
261,1905517578125;	716,25;	0,0;	0,0
261,22772216796875;	342,75;	0,0;	0,0
261,2648620605469;	384,0;	0,0;	0,0
261,3019714355469;	703,25;	0,0;	0,0
261,3391418457031;	1293,75;	0,0;	0,0
261,3762512207031;	666,0;	0,0;	0,0
261,41339111328125;	270,75;	0,0;	0,0
261,4504699707031;	207,0;	0,0;	0,0
261,48760986328125;	196,5;	0,0;	0,0
261,52471923828125;	194,25;	0,0;	0,0
261,5617980957031;	219,5;	0,0;	0,0
261,5989074707031;	204,25;	0,0;	0,0
261,6359558105469;	288,5;	0,0;	0,0
261,6730651855469;	506,25;	0,0;	0,0
261,7101135253906;	1056,5;	0,0;	0,0
261,7471618652344;	754,75;	0,0;	0,0
261,78424072265625;	321,0;	0,0;	0,0
261,8212585449219;	239,75;	0,0;	0,0
261,85833740234375;	288,5;	0,0;	0,0
261,8953552246094;	238,25;	0,0;	0,0
261,93243408203125;	213,75;	0,0;	0,0
261,96942138671875;	254,5;	0,0;	0,0
262,00640869140625;	334,75;	0,0;	0,0
262,04345703125;	317,75;	0,0;	0,0
262,0804443359375;	345,0;	0,0;	0,0
262,117431640625;	633,75;	0,0;	0,0
262,1544494628906;	453,75;	0,0;	0,0
262,19140625;	241,75;	0,0;	0,0
262,2283935546875;	223,25;	0,0;	0,0
262,265380859375;	231,0;	0,0;	0,0
262,3023376464844;	337,25;	0,0;	0,0
262,3392639160156;	290,25;	0,0;	0,0
262,376220703125;	237,25;	0,0;	0,0
262,4131774902344;	241,0;	0,0;	0,0
262,4501037597656;	413,0;	0,0;	0,0
262,487060546875;	803,0;	0,0;	0,0
262,52398681640625;	1499,0;	0,0;	0,0
262,5608825683594;	670,5;	0,0;	0,0
262,5978088378906;	277,5;	0,0;	0,0
262,6346740722656;	253,5;	0,0;	0,0
262,6716003417969;	261,5;	0,0;	0,0
262,70849609375;	316,5;	0,0;	0,0
262,7453918457031;	582,75;	0,0;	0,0
262,7822570800781;	1150,75;	0,0;	0,0
262,8191223144531;	752,25;	0,0;	0,0
262,8559875488281;	271,75;	0,0;	0,0
262,892822265625;	351,25;	0,0;	0,0
262,9296875;	459,75;	0,0;	0,0
262,966552734375;	485,75;	0,0;	0,0
263,0033874511719;	641,0;	0,0;	0,0
263,04022216796875;	1460,25;	0,0;	0,0
263,0770568847656;	2543,0;	0,0;	0,0
263,1138916015625;	1510,25;	0,0;	0,0
263,1506652832031;	518,75;	0,0;	0,0
263,1875;	294,5;	0,0;	0,0
263,2242736816406;	253,5;	0,0;	0,0
263,2610778808594;	203,5;	0,0;	0,0
263,2978820800781;	215,5;	0,0;	0,0
263,3346252441406;	170,75;	0,0;	0,0
263,3714294433594;	162,25;	0,0;	0,0
263,4081726074219;	169,25;	0,0;	0,0
263,4449462890625;	184,25;	0,0;	0,0
263,4817199707031;	183,75;	0,0;	0,0
263,5184326171875;	244,75;	0,0;	0,0
263,55517578125;	273,5;	0,0;	0,0
263,5918884277344;	184,5;	0,0;	0,0
263,62860107421875;	186,0;	0,0;	0,0
263,66534423828125;	196,75;	0,0;	0,0
263,7020568847656;	210,25;	0,0;	0,0
263,7388000488281;	218,25;	0,0;	0,0
263,7754821777344;	159,75;	0,0;	0,0
263,8121643066406;	177,5;	0,0;	0,0
263,8488464355469;	165,25;	0,0;	0,0
263,8855285644531;	183,0;	0,0;	0,0
263,9222106933594;	198,5;	0,0;	0,0
263,9588928222656;	167,25;	0,0;	0,0
263,99554443359375;	170,25;	0,0;	0,0
264,0321960449219;	164,0;	0,0;	0,0
264,0688171386719;	180,5;	0,0;	0,0
264,1054992675781;	202,75;	0,0;	0,0
264,14208984375;	215,5;	0,0;	0,0
264,1787414550781;	199,0;	0,0;	0,0
264,2153625488281;	161,0;	0,0;	0,0
264,251953125;	157,25;	0,0;	0,0
264,28857421875;	169,25;	0,0;	0,0
264,3251647949219;	199,25;	0,0;	0,0
264,36175537109375;	262,0;	0,0;	0,0
264,3983459472656;	207,5;	0,0;	0,0
264,4349365234375;	163,0;	0,0;	0,0
264,47149658203125;	184,5;	0,0;	0,0
264,5080871582031;	185,0;	0,0;	0,0
264,5446472167969;	182,5;	0,0;	0,0
264,5812072753906;	165,75;	0,0;	0,0
264,61773681640625;	171,0;	0,0;	0,0
264,654296875;	154,75;	0,0;	0,0
264,6907958984375;	183,0;	0,0;	0,0
264,72735595703125;	173,75;	0,0;	0,0
264,76385498046875;	174,75;	0,0;	0,0
264,8003845214844;	164,5;	0,0;	0,0
264,8368835449219;	165,25;	0,0;	0,0
264,8733825683594;	186,0;	0,0;	0,0
264,9098815917969;	178,25;	0,0;	0,0
264,94635009765625;	161,25;	0,0;	0,0
264,98284912109375;	186,25;	0,0;	0,0
265,0193176269531;	184,0;	0,0;	0,0
265,0558166503906;	189,0;	0,0;	0,0
265,0922546386719;	172,5;	0,0;	0,0
265,1286926269531;	170,5;	0,0;	0,0
265,1651611328125;	183,5;	0,0;	0,0
265,20159912109375;	168,0;	0,0;	0,0
265,238037109375;	159,5;	0,0;	0,0
265,27447509765625;	149,25;	0,0;	0,0
265,31085205078125;	172,25;	0,0;	0,0
265,3472900390625;	174,25;	0,0;	0,0
265,3836669921875;	145,5;	0,0;	0,0
265,42010498046875;	152,75;	0,0;	0,0
265,45648193359375;	177,5;	0,0;	0,0
265,49285888671875;	160,0;	0,0;	0,0
265,5292663574219;	169,0;	0,0;	0,0
265,56561279296875;	184,75;	0,0;	0,0
265,6020202636719;	177,25;	0,0;	0,0
265,63836669921875;	156,25;	0,0;	0,0
265,67474365234375;	171,0;	0,0;	0,0
265,7110595703125;	179,0;	0,0;	0,0
265,74737548828125;	176,75;	0,0;	0,0
265,7837219238281;	188,5;	0,0;	0,0
265,8200378417969;	183,5;	0,0;	0,0
265,85638427734375;	170,5;	0,0;	0,0
265,8927307128906;	154,0;	0,0;	0,0
265,92901611328125;	168,25;	0,0;	0,0
265,96533203125;	173,25;	0,0;	0,0
266,0016174316406;	189,25;	0,0;	0,0
266,03790283203125;	183,75;	0,0;	0,0
266,0741882324219;	185,0;	0,0;	0,0
266,1104431152344;	176,5;	0,0;	0,0
266,1466979980469;	184,0;	0,0;	0,0
266,1829528808594;	188,0;	0,0;	0,0
266,21923828125;	179,25;	0,0;	0,0
266,2554626464844;	183,0;	0,0;	0,0
266,2917175292969;	190,25;	0,0;	0,0
266,32794189453125;	194,0;	0,0;	0,0
266,3641662597656;	228,5;	0,0;	0,0
266,4004211425781;	404,5;	0,0;	0,0
266,4366149902344;	462,5;	0,0;	0,0
266,4728088378906;	239,0;	0,0;	0,0
266,5090026855469;	180,5;	0,0;	0,0
266,5451965332031;	216,25;	0,0;	0,0
266,5814208984375;	285,25;	0,0;	0,0
266,6175842285156;	484,25;	0,0;	0,0
266,65374755859375;	446,5;	0,0;	0,0
266,6899108886719;	192,25;	0,0;	0,0
266,7261047363281;	182,0;	0,0;	0,0
266,7622375488281;	171,0;	0,0;	0,0
266,7983703613281;	152,5;	0,0;	0,0
266,83453369140625;	179,25;	0,0;	0,0
266,8706359863281;	161,5;	0,0;	0,0
266,90679931640625;	188,0;	0,0;	0,0
266,9429016113281;	187,0;	0,0;	0,0
266,97900390625;	177,75;	0,0;	0,0
267,01513671875;	173,0;	0,0;	0,0
267,05120849609375;	156,75;	0,0;	0,0
267,08734130859375;	155,5;	0,0;	0,0
267,1234130859375;	152,5;	0,0;	0,0
267,1594543457031;	171,25;	0,0;	0,0
267,1955871582031;	182,0;	0,0;	0,0
267,2315979003906;	172,25;	0,0;	0,0
267,2677001953125;	171,25;	0,0;	0,0
267,3037414550781;	173,75;	0,0;	0,0
267,3397521972656;	166,0;	0,0;	0,0
267,3758239746094;	149,5;	0,0;	0,0
267,4118347167969;	168,0;	0,0;	0,0
267,4479064941406;	166,0;	0,0;	0,0
267,48388671875;	183,75;	0,0;	0,0
267,5199279785156;	169,5;	0,0;	0,0
267,555908203125;	167,25;	0,0;	0,0
267,5918884277344;	160,0;	0,0;	0,0
267,6279296875;	171,5;	0,0;	0,0
267,66387939453125;	183,25;	0,0;	0,0
267,69989013671875;	167,25;	0,0;	0,0
267,73583984375;	169,5;	0,0;	0,0
267,7718200683594;	157,5;	0,0;	0,0
267,8077697753906;	190,75;	0,0;	0,0
267,8437194824219;	271,0;	0,0;	0,0
267,8796691894531;	298,5;	0,0;	0,0
267,9156188964844;	193,25;	0,0;	0,0
267,9515686035156;	166,25;	0,0;	0,0
267,9874572753906;	213,25;	0,0;	0,0
268,02337646484375;	194,0;	0,0;	0,0
268,0592956542969;	184,75;	0,0;	0,0
268,0951843261719;	194,0;	0,0;	0,0
268,131103515625;	189,5;	0,0;	0,0
268,1669616699219;	183,0;	0,0;	0,0
268,2028503417969;	161,0;	0,0;	0,0
268,2387390136719;	174,75;	0,0;	0,0
268,2746276855469;	173,5;	0,0;	0,0
268,3105163574219;	183,25;	0,0;	0,0
268,3463439941406;	181,5;	0,0;	0,0
268,3822021484375;	209,0;	0,0;	0,0
268,41802978515625;	299,75;	0,0;	0,0
268,453857421875;	375,75;	0,0;	0,0
268,4897155761719;	208,5;	0,0;	0,0
268,5255126953125;	164,75;	0,0;	0,0
268,5613098144531;	176,0;	0,0;	0,0
268,59716796875;	158,25;	0,0;	0,0
268,6329345703125;	160,25;	0,0;	0,0
268,66876220703125;	172,75;	0,0;	0,0
268,7045593261719;	153,25;	0,0;	0,0
268,7403259277344;	187,5;	0,0;	0,0
268,7760925292969;	170,0;	0,0;	0,0
268,8118591308594;	182,5;	0,0;	0,0
268,84765625;	226,25;	0,0;	0,0
268,88336181640625;	311,5;	0,0;	0,0
268,9191589355469;	240,25;	0,0;	0,0
268,95489501953125;	210,0;	0,0;	0,0
268,9906005859375;	180,75;	0,0;	0,0
269,0263366699219;	163,5;	0,0;	0,0
269,06207275390625;	154,25;	0,0;	0,0
269,0977783203125;	180,5;	0,0;	0,0
269,13348388671875;	196,5;	0,0;	0,0
269,1692199707031;	233,25;	0,0;	0,0
269,20489501953125;	337,25;	0,0;	0,0
269,2405700683594;	363,5;	0,0;	0,0
269,2762451171875;	223,25;	0,0;	0,0
269,3119201660156;	193,75;	0,0;	0,0
269,34759521484375;	196,0;	0,0;	0,0
269,3832702636719;	180,0;	0,0;	0,0
269,41888427734375;	195,25;	0,0;	0,0
269,45458984375;	186,0;	0,0;	0,0
269,4902038574219;	200,75;	0,0;	0,0
269,5258483886719;	201,0;	0,0;	0,0
269,56146240234375;	230,0;	0,0;	0,0
269,5970764160156;	234,0;	0,0;	0,0
269,6327209472656;	214,0;	0,0;	0,0
269,6683044433594;	195,25;	0,0;	0,0
269,70391845703125;	194,0;	0,0;	0,0
269,739501953125;	195,5;	0,0;	0,0
269,77508544921875;	186,5;	0,0;	0,0
269,8106689453125;	180,0;	0,0;	0,0
269,84625244140625;	211,5;	0,0;	0,0
269,8818054199219;	221,5;	0,0;	0,0
269,9173583984375;	191,75;	0,0;	0,0
269,9529113769531;	177,75;	0,0;	0,0
269,98846435546875;	174,0;	0,0;	0,0
270,0240173339844;	166,75;	0,0;	0,0
270,0595397949219;	178,75;	0,0;	0,0
270,0950622558594;	166,25;	0,0;	0,0
270,1305847167969;	163,25;	0,0;	0,0
270,16607666015625;	161,5;	0,0;	0,0
270,2015686035156;	176,25;	0,0;	0,0
270,2370910644531;	178,75;	0,0;	0,0
270,2725830078125;	182,0;	0,0;	0,0
270,3080749511719;	202,5;	0,0;	0,0
270,3435363769531;	356,75;	0,0;	0,0
270,3790283203125;	354,0;	0,0;	0,0
270,41448974609375;	187,75;	0,0;	0,0
270,4499206542969;	188,5;	0,0;	0,0
270,4853820800781;	174,75;	0,0;	0,0
270,5208435058594;	197,25;	0,0;	0,0
270,5562744140625;	257,0;	0,0;	0,0
270,5917053222656;	294,75;	0,0;	0,0
270,62713623046875;	344,75;	0,0;	0,0
270,66253662109375;	242,75;	0,0;	0,0
270,69793701171875;	203,0;	0,0;	0,0
270,7333679199219;	173,5;	0,0;	0,0
270,7687683105469;	174,25;	0,0;	0,0
270,8041076660156;	221,75;	0,0;	0,0
270,8395080566406;	234,75;	0,0;	0,0
270,8748779296875;	249,5;	0,0;	0,0
270,9102783203125;	193,25;	0,0;	0,0
270,94561767578125;	180,5;	0,0;	0,0
270,98095703125;	167,75;	0,0;	0,0
271,016357421875;	206,25;	0,0;	0,0
271,0516662597656;	204,25;	0,0;	0,0
271,0870056152344;	220,0;	0,0;	0,0
271,122314453125;	334,75;	0,0;	0,0
271,15765380859375;	354,75;	0,0;	0,0
271,1929626464844;	268,5;	0,0;	0,0
271,228271484375;	190,5;	0,0;	0,0
271,2635498046875;	172,0;	0,0;	0,0
271,2988586425781;	184,25;	0,0;	0,0
271,3341369628906;	245,25;	0,0;	0,0
271,36944580078125;	508,75;	0,0;	0,0
271,4046936035156;	864,25;	0,0;	0,0
271,4399719238281;	440,0;	0,0;	0,0
271,4752197265625;	221,0;	0,0;	0,0
271,5104675292969;	186,5;	0,0;	0,0
271,5457458496094;	230,25;	0,0;	0,0
271,58099365234375;	315,0;	0,0;	0,0
271,6161804199219;	243,5;	0,0;	0,0
271,65142822265625;	187,0;	0,0;	0,0
271,6866455078125;	199,25;	0,0;	0,0
271,7218322753906;	201,5;	0,0;	0,0
271,7570495605469;	241,5;	0,0;	0,0
271,792236328125;	364,75;	0,0;	0,0
271,82745361328125;	600,0;	0,0;	0,0
271,8626403808594;	979,0;	0,0;	0,0
271,8977966308594;	597,25;	0,0;	0,0
271,9329833984375;	295,25;	0,0;	0,0
271,9681396484375;	260,25;	0,0;	0,0
272,0032653808594;	334,5;	0,0;	0,0
272,0384216308594;	657,0;	0,0;	0,0
272,0735778808594;	576,0;	0,0;	0,0
272,10870361328125;	235,0;	0,0;	0,0
272,1438293457031;	217,0;	0,0;	0,0
272,178955078125;	222,75;	0,0;	0,0
272,2140808105469;	183,5;	0,0;	0,0
272,2491760253906;	216,0;	0,0;	0,0
272,2843017578125;	305,0;	0,0;	0,0
272,31939697265625;	481,5;	0,0;	0,0
272,3544921875;	335,75;	0,0;	0,0
272,3895568847656;	236,75;	0,0;	0,0
272,4245910644531;	319,5;	0,0;	0,0
272,4596862792969;	398,5;	0,0;	0,0
272,4947509765625;	259,75;	0,0;	0,0
272,5298156738281;	222,25;	0,0;	0,0
272,56488037109375;	288,25;	0,0;	0,0
272,5998840332031;	245,25;	0,0;	0,0
272,6349182128906;	262,25;	0,0;	0,0
272,6699523925781;	410,25;	0,0;	0,0
272,7049865722656;	1028,5;	0,0;	0,0
272,739990234375;	777,5;	0,0;	0,0
272,7750244140625;	290,0;	0,0;	0,0
272,80999755859375;	202,5;	0,0;	0,0
272,844970703125;	222,5;	0,0;	0,0
272,8799743652344;	195,25;	0,0;	0,0
272,9149475097656;	191,75;	0,0;	0,0
272,9499206542969;	181,0;	0,0;	0,0
272,9848937988281;	240,25;	0,0;	0,0
273,0198059082031;	379,75;	0,0;	0,0
273,0547790527344;	395,0;	0,0;	0,0
273,0897216796875;	225,75;	0,0;	0,0
273,12469482421875;	174,0;	0,0;	0,0
273,1595764160156;	172,0;	0,0;	0,0
273,1944885253906;	198,75;	0,0;	0,0
273,22943115234375;	210,5;	0,0;	0,0
273,2643127441406;	271,75;	0,0;	0,0
273,2992248535156;	452,0;	0,0;	0,0
273,3341064453125;	571,0;	0,0;	0,0
273,3690185546875;	294,25;	0,0;	0,0
273,4039001464844;	245,75;	0,0;	0,0
273,4387512207031;	235,75;	0,0;	0,0
273,4736328125;	282,0;	0,0;	0,0
273,50848388671875;	464,0;	0,0;	0,0
273,5433654785156;	322,5;	0,0;	0,0
273,5782165527344;	239,75;	0,0;	0,0
273,613037109375;	368,75;	0,0;	0,0
273,64788818359375;	716,5;	0,0;	0,0
273,68267822265625;	868,5;	0,0;	0,0
273,717529296875;	522,25;	0,0;	0,0
273,7523193359375;	271,75;	0,0;	0,0
273,787109375;	254,75;	0,0;	0,0
273,8219299316406;	327,75;	0,0;	0,0
273,8567199707031;	584,25;	0,0;	0,0
273,8915100097656;	1486,0;	0,0;	0,0
273,9263000488281;	2095,75;	0,0;	0,0
273,9610900878906;	711,75;	0,0;	0,0
273,99578857421875;	302,25;	0,0;	0,0
274,0305480957031;	241,0;	0,0;	0,0
274,0653381347656;	230,0;	0,0;	0,0
274,1000671386719;	269,25;	0,0;	0,0
274,13482666015625;	329,25;	0,0;	0,0
274,1695251464844;	537,0;	0,0;	0,0
274,2042236328125;	910,0;	0,0;	0,0
274,2389831542969;	732,5;	0,0;	0,0
274,2736511230469;	1296,0;	0,0;	0,0
274,3083801269531;	1040,5;	0,0;	0,0
274,34307861328125;	448,0;	0,0;	0,0
274,3777160644531;	484,0;	0,0;	0,0
274,4124450683594;	341,75;	0,0;	0,0
274,44708251953125;	278,5;	0,0;	0,0
274,4817810058594;	248,25;	0,0;	0,0
274,51641845703125;	327,5;	0,0;	0,0
274,5510559082031;	514,5;	0,0;	0,0
274,5857238769531;	1317,25;	0,0;	0,0
274,620361328125;	2212,25;	0,0;	0,0
274,6549987792969;	2095,0;	0,0;	0,0
274,68963623046875;	1072,75;	0,0;	0,0
274,7242431640625;	375,25;	0,0;	0,0
274,75885009765625;	306,5;	0,0;	0,0
274,79345703125;	382,0;	0,0;	0,0
274,82806396484375;	688,0;	0,0;	0,0
274,86260986328125;	1827,75;	0,0;	0,0
274,8972473144531;	3244,5;	0,0;	0,0
274,9317932128906;	1472,75;	0,0;	0,0
274,96636962890625;	757,5;	0,0;	0,0
275,00091552734375;	517,0;	0,0;	0,0
275,03546142578125;	283,75;	0,0;	0,0
275,0700378417969;	298,25;	0,0;	0,0
275,1045837402344;	227,25;	0,0;	0,0
275,1391296386719;	224,75;	0,0;	0,0
275,17364501953125;	209,5;	0,0;	0,0
275,2081604003906;	216,25;	0,0;	0,0
275,24267578125;	316,5;	0,0;	0,0
275,27716064453125;	635,5;	0,0;	0,0
275,31170654296875;	611,75;	0,0;	0,0
275,3461608886719;	358,75;	0,0;	0,0
275,3806457519531;	312,0;	0,0;	0,0
275,4151611328125;	333,25;	0,0;	0,0
275,4495849609375;	447,25;	0,0;	0,0
275,48406982421875;	785,75;	0,0;	0,0
275,5185241699219;	2078,25;	0,0;	0,0
275,5529479980469;	2260,0;	0,0;	0,0
275,5874328613281;	854,5;	0,0;	0,0
275,621826171875;	449,5;	0,0;	0,0
275,6562805175781;	282,25;	0,0;	0,0
275,6907043457031;	310,0;	0,0;	0,0
275,72515869140625;	243,5;	0,0;	0,0
275,759521484375;	185,25;	0,0;	0,0
275,7939147949219;	168,75;	0,0;	0,0
275,82830810546875;	198,0;	0,0;	0,0
275,8627014160156;	192,5;	0,0;	0,0
275,8971252441406;	177,75;	0,0;	0,0
275,93145751953125;	210,0;	0,0;	0,0
275,9658203125;	167,75;	0,0;	0,0
276,00018310546875;	166,5;	0,0;	0,0
276,0345458984375;	174,75;	0,0;	0,0
276,06890869140625;	207,25;	0,0;	0,0
276,10321044921875;	287,5;	0,0;	0,0
276,1375732421875;	514,25;	0,0;	0,0
276,171875;	394,25;	0,0;	0,0
276,2062072753906;	241,25;	0,0;	0,0
276,24053955078125;	228,0;	0,0;	0,0
276,2748107910156;	232,75;	0,0;	0,0
276,3091125488281;	208,5;	0,0;	0,0
276,3434143066406;	195,5;	0,0;	0,0
276,377685546875;	188,0;	0,0;	0,0
276,4119567871094;	201,5;	0,0;	0,0
276,44622802734375;	191,25;	0,0;	0,0
276,4804992675781;	174,75;	0,0;	0,0
276,5147399902344;	165,75;	0,0;	0,0
276,54901123046875;	175,0;	0,0;	0,0
276,583251953125;	198,25;	0,0;	0,0
276,6174621582031;	235,0;	0,0;	0,0
276,6517333984375;	276,75;	0,0;	0,0
276,6859130859375;	516,75;	0,0;	0,0
276,7201232910156;	886,5;	0,0;	0,0
276,7543640136719;	393,5;	0,0;	0,0
276,78851318359375;	243,0;	0,0;	0,0
276,8227233886719;	239,25;	0,0;	0,0
276,8569030761719;	303,75;	0,0;	0,0
276,89111328125;	364,25;	0,0;	0,0
276,9252624511719;	265,75;	0,0;	0,0
276,95941162109375;	195,0;	0,0;	0,0
276,9935607910156;	185,5;	0,0;	0,0
277,0277099609375;	198,25;	0,0;	0,0
277,0618896484375;	163,0;	0,0;	0,0
277,09600830078125;	190,25;	0,0;	0,0
277,130126953125;	239,0;	0,0;	0,0
277,1642761230469;	349,75;	0,0;	0,0
277,1983642578125;	263,0;	0,0;	0,0
277,23248291015625;	197,0;	0,0;	0,0
277,2666015625;	199,5;	0,0;	0,0
277,3006896972656;	181,5;	0,0;	0,0
277,33477783203125;	184,25;	0,0;	0,0
277,36883544921875;	189,0;	0,0;	0,0
277,4029235839844;	196,0;	0,0;	0,0
277,4369812011719;	216,25;	0,0;	0,0
277,4710388183594;	182,25;	0,0;	0,0
277,5050964355469;	185,5;	0,0;	0,0
277,53912353515625;	177,0;	0,0;	0,0
277,5731506347656;	170,0;	0,0;	0,0
277,6072082519531;	184,5;	0,0;	0,0
277,6412353515625;	165,5;	0,0;	0,0
277,67523193359375;	193,25;	0,0;	0,0
277,709228515625;	196,0;	0,0;	0,0
277,7432556152344;	221,0;	0,0;	0,0
277,7772521972656;	322,25;	0,0;	0,0
277,8112487792969;	285,75;	0,0;	0,0
277,84521484375;	257,0;	0,0;	0,0
277,8791809082031;	365,5;	0,0;	0,0
277,91314697265625;	350,0;	0,0;	0,0
277,94708251953125;	230,5;	0,0;	0,0
277,9810791015625;	193,75;	0,0;	0,0
278,0150146484375;	186,5;	0,0;	0,0
278,0489501953125;	182,25;	0,0;	0,0
278,0828857421875;	177,5;	0,0;	0,0
278,1167907714844;	169,25;	0,0;	0,0
278,1507263183594;	192,25;	0,0;	0,0
278,18463134765625;	180,75;	0,0;	0,0
278,21856689453125;	186,5;	0,0;	0,0
278,2524108886719;	175,25;	0,0;	0,0
278,28631591796875;	253,5;	0,0;	0,0
278,3202209472656;	434,5;	0,0;	0,0
278,3540954589844;	374,75;	0,0;	0,0
278,387939453125;	200,25;	0,0;	0,0
278,42181396484375;	173,5;	0,0;	0,0
278,4556884765625;	188,25;	0,0;	0,0
278,489501953125;	216,25;	0,0;	0,0
278,5233459472656;	208,75;	0,0;	0,0
278,55718994140625;	158,0;	0,0;	0,0
278,59100341796875;	189,75;	0,0;	0,0
278,62481689453125;	166,0;	0,0;	0,0
278,65863037109375;	183,0;	0,0;	0,0
278,6924133300781;	203,25;	0,0;	0,0
278,72625732421875;	250,5;	0,0;	0,0
278,760009765625;	496,25;	0,0;	0,0
278,7938232421875;	493,0;	0,0;	0,0
278,8276062011719;	204,5;	0,0;	0,0
278,861328125;	172,0;	0,0;	0,0
278,8951110839844;	192,75;	0,0;	0,0
278,92889404296875;	195,5;	0,0;	0,0
278,962646484375;	192,0;	0,0;	0,0
278,9963684082031;	174,75;	0,0;	0,0
279,03009033203125;	194,5;	0,0;	0,0
279,0638122558594;	177,75;	0,0;	0,0
279,0975341796875;	183,25;	0,0;	0,0
279,1312561035156;	194,0;	0,0;	0,0
279,1649475097656;	170,75;	0,0;	0,0
279,19866943359375;	181,25;	0,0;	0,0
279,23236083984375;	173,75;	0,0;	0,0
279,2659912109375;	173,5;	0,0;	0,0
279,2997131347656;	197,5;	0,0;	0,0
279,3333740234375;	205,25;	0,0;	0,0
279,3670349121094;	224,0;	0,0;	0,0
279,40069580078125;	269,75;	0,0;	0,0
279,434326171875;	437,25;	0,0;	0,0
279,4679870605469;	553,25;	0,0;	0,0
279,5016174316406;	1027,5;	0,0;	0,0
279,5352478027344;	986,5;	0,0;	0,0
279,5688781738281;	342,75;	0,0;	0,0
279,6025085449219;	206,5;	0,0;	0,0
279,6360778808594;	205,0;	0,0;	0,0
279,669677734375;	208,75;	0,0;	0,0
279,70330810546875;	200,75;	0,0;	0,0
279,7368469238281;	309,75;	0,0;	0,0
279,77044677734375;	364,75;	0,0;	0,0
279,80401611328125;	347,0;	0,0;	0,0
279,8375549316406;	209,25;	0,0;	0,0
279,8711242675781;	192,25;	0,0;	0,0
279,9046936035156;	198,75;	0,0;	0,0
279,938232421875;	194,75;	0,0;	0,0
279,97174072265625;	183,0;	0,0;	0,0
280,0052795410156;	183,5;	0,0;	0,0
280,038818359375;	215,0;	0,0;	0,0
280,0722961425781;	299,25;	0,0;	0,0
280,1058349609375;	228,25;	0,0;	0,0
280,1393127441406;	223,5;	0,0;	0,0
280,17279052734375;	252,75;	0,0;	0,0
280,206298828125;	528,5;	0,0;	0,0
280,23974609375;	767,5;	0,0;	0,0
280,2732238769531;	384,0;	0,0;	0,0
280,3067321777344;	206,25;	0,0;	0,0
280,3401794433594;	210,75;	0,0;	0,0
280,3736267089844;	202,25;	0,0;	0,0
280,40704345703125;	303,75;	0,0;	0,0
280,4405212402344;	255,5;	0,0;	0,0
280,47393798828125;	207,0;	0,0;	0,0
280,5073547363281;	178,75;	0,0;	0,0
280,5407409667969;	175,0;	0,0;	0,0
280,57415771484375;	176,25;	0,0;	0,0
280,6075744628906;	181,25;	0,0;	0,0
280,6409606933594;	278,0;	0,0;	0,0
280,6743469238281;	301,25;	0,0;	0,0
280,70770263671875;	192,5;	0,0;	0,0
280,7410888671875;	184,5;	0,0;	0,0
280,77447509765625;	173,0;	0,0;	0,0
280,8077697753906;	158,5;	0,0;	0,0
280,8411560058594;	165,0;	0,0;	0,0
280,87451171875;	183,25;	0,0;	0,0
280,9078369140625;	171,25;	0,0;	0,0
280,941162109375;	162,0;	0,0;	0,0
280,9744567871094;	164,75;	0,0;	0,0
281,0078125;	163,0;	0,0;	0,0
281,0411071777344;	163,0;	0,0;	0,0
281,0744323730469;	178,5;	0,0;	0,0
281,1076965332031;	171,5;	0,0;	0,0
281,1409606933594;	165,25;	0,0;	0,0
281,1742858886719;	174,5;	0,0;	0,0
281,20751953125;	202,5;	0,0;	0,0
281,24078369140625;	229,75;	0,0;	0,0
281,2740478515625;	389,25;	0,0;	0,0
281,3072814941406;	453,5;	0,0;	0,0
281,3405456542969;	214,25;	0,0;	0,0
281,373779296875;	177,75;	0,0;	0,0
281,4070129394531;	164,75;	0,0;	0,0
281,4402160644531;	150,0;	0,0;	0,0
281,47344970703125;	158,25;	0,0;	0,0
281,50665283203125;	177,5;	0,0;	0,0
281,5398254394531;	152,75;	0,0;	0,0
281,5730285644531;	162,25;	0,0;	0,0
281,606201171875;	151,5;	0,0;	0,0
281,639404296875;	156,0;	0,0;	0,0
281,6725769042969;	177,75;	0,0;	0,0
281,70574951171875;	178,25;	0,0;	0,0
281,7389221191406;	166,5;	0,0;	0,0
281,77203369140625;	174,75;	0,0;	0,0
281,80517578125;	158,5;	0,0;	0,0
281,83831787109375;	171,25;	0,0;	0,0
281,8714294433594;	171,5;	0,0;	0,0
281,9045715332031;	171,75;	0,0;	0,0
281,93768310546875;	163,75;	0,0;	0,0
281,97076416015625;	167,25;	0,0;	0,0
282,0038757324219;	143,0;	0,0;	0,0
282,0369567871094;	155,75;	0,0;	0,0
282,070068359375;	169,25;	0,0;	0,0
282,1031188964844;	177,25;	0,0;	0,0
282,1361999511719;	159,5;	0,0;	0,0
282,16925048828125;	165,5;	0,0;	0,0
282,20233154296875;	167,25;	0,0;	0,0
282,2353820800781;	186,5;	0,0;	0,0
282,2684020996094;	255,0;	0,0;	0,0
282,30145263671875;	280,75;	0,0;	0,0
282,33447265625;	198,75;	0,0;	0,0
282,36749267578125;	173,0;	0,0;	0,0
282,4004821777344;	170,25;	0,0;	0,0
282,4334716796875;	178,0;	0,0;	0,0
282,4665222167969;	216,25;	0,0;	0,0
282,49951171875;	295,75;	0,0;	0,0
282,5325012207031;	348,0;	0,0;	0,0
282,5654602050781;	221,0;	0,0;	0,0
282,59844970703125;	184,5;	0,0;	0,0
282,63140869140625;	168,5;	0,0;	0,0
282,6643371582031;	185,25;	0,0;	0,0
282,69732666015625;	179,0;	0,0;	0,0
282,730224609375;	197,0;	0,0;	0,0
282,76318359375;	204,75;	0,0;	0,0
282,79608154296875;	185,75;	0,0;	0,0
282,82904052734375;	230,5;	0,0;	0,0
282,8619384765625;	207,5;	0,0;	0,0
282,8948059082031;	140,0;	0,0;	0,0
282,927734375;	152,75;	0,0;	0,0
282,96063232421875;	158,75;	0,0;	0,0
282,9934997558594;	157,25;	0,0;	0,0
283,0263671875;	187,25;	0,0;	0,0
283,0592346191406;	182,5;	0,0;	0,0
283,09210205078125;	275,75;	0,0;	0,0
283,1249694824219;	354,25;	0,0;	0,0
283,1578063964844;	275,0;	0,0;	0,0
283,1906433105469;	343,5;	0,0;	0,0
283,2234802246094;	360,25;	0,0;	0,0
283,2563171386719;	214,75;	0,0;	0,0
283,28912353515625;	210,5;	0,0;	0,0
283,32196044921875;	175,5;	0,0;	0,0
283,354736328125;	169,25;	0,0;	0,0
283,38751220703125;	185,5;	0,0;	0,0
283,42034912109375;	186,25;	0,0;	0,0
283,4530944824219;	189,25;	0,0;	0,0
283,48590087890625;	209,25;	0,0;	0,0
283,5186462402344;	284,0;	0,0;	0,0
283,5513916015625;	297,25;	0,0;	0,0
283,58416748046875;	193,5;	0,0;	0,0
283,61688232421875;	173,0;	0,0;	0,0
283,649658203125;	189,5;	0,0;	0,0
283,682373046875;	194,5;	0,0;	0,0
283,7151184082031;	185,5;	0,0;	0,0
283,7478332519531;	216,25;	0,0;	0,0
283,780517578125;	310,5;	0,0;	0,0
283,8132629394531;	209,25;	0,0;	0,0
283,8459167480469;	171,75;	0,0;	0,0
283,8786315917969;	187,25;	0,0;	0,0
283,9112854003906;	199,5;	0,0;	0,0
283,9439697265625;	233,75;	0,0;	0,0
283,97662353515625;	256,0;	0,0;	0,0
284,00927734375;	319,75;	0,0;	0,0
284,04193115234375;	324,0;	0,0;	0,0
284,0745849609375;	209,25;	0,0;	0,0
284,10723876953125;	167,75;	0,0;	0,0
284,1398620605469;	165,0;	0,0;	0,0
284,1724548339844;	187,75;	0,0;	0,0
284,2051086425781;	171,0;	0,0;	0,0
284,2377014160156;	174,5;	0,0;	0,0
284,27032470703125;	215,75;	0,0;	0,0
284,3028869628906;	269,0;	0,0;	0,0
284,33544921875;	424,75;	0,0;	0,0
284,3680419921875;	439,0;	0,0;	0,0
284,400634765625;	242,75;	0,0;	0,0
284,4331970214844;	189,25;	0,0;	0,0
284,46575927734375;	192,0;	0,0;	0,0
284,498291015625;	239,75;	0,0;	0,0
284,5308532714844;	268,0;	0,0;	0,0
284,5633544921875;	203,25;	0,0;	0,0
284,5959167480469;	166,0;	0,0;	0,0
284,62841796875;	185,0;	0,0;	0,0
284,6609191894531;	178,75;	0,0;	0,0
284,6934509277344;	186,5;	0,0;	0,0
284,7259521484375;	197,5;	0,0;	0,0
284,7584533691406;	208,0;	0,0;	0,0
284,7909240722656;	239,5;	0,0;	0,0
284,8233947753906;	209,75;	0,0;	0,0
284,8558654785156;	198,75;	0,0;	0,0
284,8883361816406;	205,25;	0,0;	0,0
284,9208068847656;	195,0;	0,0;	0,0
284,9532165527344;	164,25;	0,0;	0,0
284,9856872558594;	169,75;	0,0;	0,0
285,0180969238281;	170,75;	0,0;	0,0
285,0505676269531;	183,5;	0,0;	0,0
285,0829772949219;	209,0;	0,0;	0,0
285,1153564453125;	345,0;	0,0;	0,0
285,14776611328125;	650,25;	0,0;	0,0
285,18017578125;	765,75;	0,0;	0,0
285,21258544921875;	363,75;	0,0;	0,0
285,2449645996094;	191,5;	0,0;	0,0
285,2773132324219;	175,5;	0,0;	0,0
285,3096923828125;	177,0;	0,0;	0,0
285,342041015625;	167,75;	0,0;	0,0
285,3744201660156;	165,25;	0,0;	0,0
285,4067687988281;	168,25;	0,0;	0,0
285,4390869140625;	171,25;	0,0;	0,0
285,471435546875;	162,0;	0,0;	0,0
285,50372314453125;	210,75;	0,0;	0,0
285,53607177734375;	225,5;	0,0;	0,0
285,568359375;	218,0;	0,0;	0,0
285,60064697265625;	187,0;	0,0;	0,0
285,6329650878906;	179,0;	0,0;	0,0
285,6652526855469;	220,25;	0,0;	0,0
285,69757080078125;	212,25;	0,0;	0,0
285,7298278808594;	198,0;	0,0;	0,0
285,7620544433594;	218,0;	0,0;	0,0
285,7943420410156;	311,0;	0,0;	0,0
285,8265686035156;	256,0;	0,0;	0,0
285,8588562011719;	190,0;	0,0;	0,0
285,89105224609375;	174,0;	0,0;	0,0
285,9233093261719;	178,0;	0,0;	0,0
285,95550537109375;	152,0;	0,0;	0,0
285,98773193359375;	151,5;	0,0;	0,0
286,0199279785156;	156,0;	0,0;	0,0
286,0521545410156;	176,5;	0,0;	0,0
286,0843505859375;	174,0;	0,0;	0,0
286,11651611328125;	161,5;	0,0;	0,0
286,1487121582031;	156,25;	0,0;	0,0
286,1808776855469;	162,5;	0,0;	0,0
286,2130432128906;	163,25;	0,0;	0,0
286,2452087402344;	169,0;	0,0;	0,0
286,27734375;	191,75;	0,0;	0,0
286,3094787597656;	203,0;	0,0;	0,0
286,3416442871094;	213,25;	0,0;	0,0
286,3737487792969;	170,5;	0,0;	0,0
286,4058837890625;	161,5;	0,0;	0,0
286,43798828125;	172,75;	0,0;	0,0
286,4700927734375;	164,5;	0,0;	0,0
286,502197265625;	169,5;	0,0;	0,0
286,5342712402344;	172,75;	0,0;	0,0
286,5663757324219;	159,75;	0,0;	0,0
286,59844970703125;	158,75;	0,0;	0,0
286,6304931640625;	196,75;	0,0;	0,0
286,66253662109375;	178,75;	0,0;	0,0
286,6946105957031;	179,25;	0,0;	0,0
286,7266845703125;	183,75;	0,0;	0,0
286,7586669921875;	171,25;	0,0;	0,0
286,7907409667969;	183,25;	0,0;	0,0
286,82275390625;	191,25;	0,0;	0,0
286,854736328125;	209,0;	0,0;	0,0
286,88677978515625;	284,25;	0,0;	0,0
286,91876220703125;	224,0;	0,0;	0,0
286,9508056640625;	170,5;	0,0;	0,0
286,9827575683594;	173,5;	0,0;	0,0
287,0147705078125;	169,5;	0,0;	0,0
287,0467224121094;	182,5;	0,0;	0,0
287,07867431640625;	188,5;	0,0;	0,0
287,11065673828125;	169,25;	0,0;	0,0
287,142578125;	172,25;	0,0;	0,0
287,174560546875;	187,75;	0,0;	0,0
287,2064514160156;	236,75;	0,0;	0,0
287,2384033203125;	183,75;	0,0;	0,0
287,2703552246094;	207,5;	0,0;	0,0
287,30224609375;	262,5;	0,0;	0,0
287,33416748046875;	235,75;	0,0;	0,0
287,3660583496094;	236,75;	0,0;	0,0
287,39794921875;	249,25;	0,0;	0,0
287,4298400878906;	186,75;	0,0;	0,0
287,461669921875;	177,25;	0,0;	0,0
287,4935607910156;	208,75;	0,0;	0,0
287,5254211425781;	215,25;	0,0;	0,0
287,55731201171875;	161,5;	0,0;	0,0
287,5891418457031;	171,75;	0,0;	0,0
287,6209411621094;	176,5;	0,0;	0,0
287,6528015136719;	189,25;	0,0;	0,0
287,68463134765625;	219,0;	0,0;	0,0
287,7164611816406;	192,25;	0,0;	0,0
287,7482604980469;	165,75;	0,0;	0,0
287,7800598144531;	170,75;	0,0;	0,0
287,8118896484375;	166,0;	0,0;	0,0
287,8436279296875;	176,0;	0,0;	0,0
287,8754577636719;	197,5;	0,0;	0,0
287,9071960449219;	179,25;	0,0;	0,0
287,9389343261719;	171,25;	0,0;	0,0
287,9707336425781;	167,5;	0,0;	0,0
288,0024719238281;	208,5;	0,0;	0,0
288,03424072265625;	248,75;	0,0;	0,0
288,0659484863281;	257,5;	0,0;	0,0
288,09771728515625;	257,0;	0,0;	0,0
288,1294250488281;	319,75;	0,0;	0,0
288,1611633300781;	216,25;	0,0;	0,0
288,19287109375;	167,25;	0,0;	0,0
288,22454833984375;	158,25;	0,0;	0,0
288,2562561035156;	162,0;	0,0;	0,0
288,2879333496094;	171,75;	0,0;	0,0
288,31964111328125;	217,0;	0,0;	0,0
288,35125732421875;	209,0;	0,0;	0,0
288,3829345703125;	179,0;	0,0;	0,0
288,41461181640625;	162,0;	0,0;	0,0
288,4462585449219;	173,25;	0,0;	0,0
288,4778747558594;	172,0;	0,0;	0,0
288,509521484375;	167,5;	0,0;	0,0
288,5411376953125;	181,0;	0,0;	0,0
288,57275390625;	183,5;	0,0;	0,0
288,6043701171875;	164,5;	0,0;	0,0
288,635986328125;	177,5;	0,0;	0,0
288,6675720214844;	151,75;	0,0;	0,0
288,69915771484375;	167,0;	0,0;	0,0
288,73077392578125;	181,25;	0,0;	0,0
288,7623291015625;	189,75;	0,0;	0,0
288,79388427734375;	170,25;	0,0;	0,0
288,8254699707031;	148,75;	0,0;	0,0
288,85699462890625;	165,0;	0,0;	0,0
288,8885498046875;	158,5;	0,0;	0,0
288,9200744628906;	191,25;	0,0;	0,0
288,9516296386719;	169,5;	0,0;	0,0
288,9831237792969;	169,25;	0,0;	0,0
289,0146789550781;	168,5;	0,0;	0,0
289,0461730957031;	170,75;	0,0;	0,0
289,0776672363281;	173,0;	0,0;	0,0
289,1091613769531;	150,75;	0,0;	0,0
289,140625;	163,5;	0,0;	0,0
289,172119140625;	168,75;	0,0;	0,0
289,2035827636719;	188,25;	0,0;	0,0
289,2350769042969;	174,5;	0,0;	0,0
289,26654052734375;	165,25;	0,0;	0,0
289,2979431152344;	162,75;	0,0;	0,0
289,32940673828125;	180,25;	0,0;	0,0
289,36083984375;	192,5;	0,0;	0,0
289,39227294921875;	222,25;	0,0;	0,0
289,4237060546875;	261,0;	0,0;	0,0
289,455078125;	251,75;	0,0;	0,0
289,48651123046875;	227,5;	0,0;	0,0
289,51788330078125;	165,25;	0,0;	0,0
289,5492858886719;	164,0;	0,0;	0,0
289,5806884765625;	154,0;	0,0;	0,0
289,6120300292969;	155,25;	0,0;	0,0
289,6434020996094;	182,25;	0,0;	0,0
289,6747741699219;	182,0;	0,0;	0,0
289,7061462402344;	190,0;	0,0;	0,0
289,7374572753906;	182,5;	0,0;	0,0
289,768798828125;	175,5;	0,0;	0,0
289,8001403808594;	164,5;	0,0;	0,0
289,8314514160156;	175,5;	0,0;	0,0
289,8627624511719;	168,0;	0,0;	0,0
289,8940734863281;	206,25;	0,0;	0,0
289,92535400390625;	196,75;	0,0;	0,0
289,9566650390625;	172,25;	0,0;	0,0
289,9879455566406;	155,25;	0,0;	0,0
290,0192565917969;	162,0;	0,0;	0,0
290,05047607421875;	166,0;	0,0;	0,0
290,081787109375;	167,25;	0,0;	0,0
290,113037109375;	211,5;	0,0;	0,0
290,1442565917969;	186,5;	0,0;	0,0
290,1755065917969;	221,0;	0,0;	0,0
290,2067565917969;	172,5;	0,0;	0,0
290,23797607421875;	153,0;	0,0;	0,0
290,2691955566406;	167,25;	0,0;	0,0
290,3004150390625;	168,75;	0,0;	0,0
290,33160400390625;	170,5;	0,0;	0,0
290,36279296875;	168,75;	0,0;	0,0
290,39398193359375;	154,5;	0,0;	0,0
290,4251403808594;	167,0;	0,0;	0,0
290,45635986328125;	157,25;	0,0;	0,0
290,4875183105469;	155,25;	0,0;	0,0
290,5186462402344;	161,75;	0,0;	0,0
290,5498046875;	166,25;	0,0;	0,0
290,5809326171875;	146,0;	0,0;	0,0
290,6120910644531;	175,5;	0,0;	0,0
290,6432189941406;	165,5;	0,0;	0,0
290,67431640625;	165,75;	0,0;	0,0
290,7054443359375;	187,0;	0,0;	0,0
290,7365417480469;	186,5;	0,0;	0,0
290,7676696777344;	164,75;	0,0;	0,0
290,79876708984375;	161,25;	0,0;	0,0
290,829833984375;	164,25;	0,0;	0,0
290,86090087890625;	174,5;	0,0;	0,0
290,8919677734375;	157,75;	0,0;	0,0
290,9230651855469;	160,25;	0,0;	0,0
290,9541015625;	171,5;	0,0;	0,0
290,9851379394531;	150,5;	0,0;	0,0
291,01617431640625;	151,25;	0,0;	0,0
291,0472106933594;	176,25;	0,0;	0,0
291,0782470703125;	172,5;	0,0;	0,0
291,1092529296875;	161,25;	0,0;	0,0
291,1402893066406;	233,25;	0,0;	0,0
291,1712646484375;	298,0;	0,0;	0,0
291,2022399902344;	327,0;	0,0;	0,0
291,2332458496094;	189,75;	0,0;	0,0
291,26422119140625;	164,5;	0,0;	0,0
291,2951965332031;	169,5;	0,0;	0,0
291,3261413574219;	160,0;	0,0;	0,0
291,35711669921875;	174,0;	0,0;	0,0
291,3880615234375;	165,25;	0,0;	0,0
291,4189758300781;	154,75;	0,0;	0,0
291,449951171875;	153,75;	0,0;	0,0
291,4808654785156;	153,5;	0,0;	0,0
291,5118103027344;	162,0;	0,0;	0,0
291,5426940917969;	172,5;	0,0;	0,0
291,5736083984375;	144,25;	0,0;	0,0
291,6044921875;	147,75;	0,0;	0,0
291,6353759765625;	166,75;	0,0;	0,0
291,6662902832031;	168,5;	0,0;	0,0
291,6971435546875;	153,75;	0,0;	0,0
291,7279968261719;	187,0;	0,0;	0,0
291,75885009765625;	231,75;	0,0;	0,0
291,7897033691406;	250,75;	0,0;	0,0
291,820556640625;	179,75;	0,0;	0,0
291,8514099121094;	171,25;	0,0;	0,0
291,8822021484375;	173,5;	0,0;	0,0
291,9130554199219;	176,25;	0,0;	0,0
291,9438781738281;	160,25;	0,0;	0,0
291,97467041015625;	179,25;	0,0;	0,0
292,0054626464844;	157,0;	0,0;	0,0
292,0362243652344;	195,25;	0,0;	0,0
292,0670471191406;	192,0;	0,0;	0,0
292,0978088378906;	168,0;	0,0;	0,0
292,1285705566406;	169,0;	0,0;	0,0
292,1593322753906;	176,0;	0,0;	0,0
292,1900939941406;	194,0;	0,0;	0,0
292,2208557128906;	182,5;	0,0;	0,0
292,2515563964844;	202,0;	0,0;	0,0
292,2823181152344;	254,0;	0,0;	0,0
292,31304931640625;	244,5;	0,0;	0,0
292,34375;	248,0;	0,0;	0,0
292,37445068359375;	219,75;	0,0;	0,0
292,4051818847656;	171,0;	0,0;	0,0
292,43585205078125;	167,5;	0,0;	0,0
292,466552734375;	182,75;	0,0;	0,0
292,49725341796875;	187,0;	0,0;	0,0
292,52789306640625;	188,25;	0,0;	0,0
292,5585632324219;	196,5;	0,0;	0,0
292,5892333984375;	248,25;	0,0;	0,0
292,6198425292969;	334,75;	0,0;	0,0
292,6505126953125;	286,0;	0,0;	0,0
292,68115234375;	188,5;	0,0;	0,0
292,7117919921875;	177,75;	0,0;	0,0
292,74237060546875;	161,5;	0,0;	0,0
292,7729797363281;	195,75;	0,0;	0,0
292,8035888671875;	215,5;	0,0;	0,0
292,83416748046875;	276,75;	0,0;	0,0
292,8647766113281;	429,75;	0,0;	0,0
292,8953552246094;	332,25;	0,0;	0,0
292,9259033203125;	190,75;	0,0;	0,0
292,95648193359375;	179,75;	0,0;	0,0
292,9870300292969;	186,75;	0,0;	0,0
293,0176086425781;	152,75;	0,0;	0,0
293,04815673828125;	158,0;	0,0;	0,0
293,0786437988281;	159,25;	0,0;	0,0
293,1092224121094;	162,25;	0,0;	0,0
293,1397399902344;	162,75;	0,0;	0,0
293,1702575683594;	174,75;	0,0;	0,0
293,20074462890625;	158,0;	0,0;	0,0
293,23126220703125;	175,5;	0,0;	0,0
293,2617492675781;	201,5;	0,0;	0,0
293,2922058105469;	194,25;	0,0;	0,0
293,32269287109375;	169,25;	0,0;	0,0
293,3531494140625;	181,0;	0,0;	0,0
293,3836364746094;	173,75;	0,0;	0,0
293,4140625;	166,25;	0,0;	0,0
293,44451904296875;	147,5;	0,0;	0,0
293,4749755859375;	166,5;	0,0;	0,0
293,50537109375;	183,5;	0,0;	0,0
293,53582763671875;	169,75;	0,0;	0,0
293,56622314453125;	200,0;	0,0;	0,0
293,5966491699219;	235,75;	0,0;	0,0
293,6270446777344;	448,75;	0,0;	0,0
293,65740966796875;	669,25;	0,0;	0,0
293,68780517578125;	457,75;	0,0;	0,0
293,7181701660156;	244,0;	0,0;	0,0
293,7485656738281;	213,25;	0,0;	0,0
293,7789001464844;	193,25;	0,0;	0,0
293,8092346191406;	198,0;	0,0;	0,0
293,839599609375;	181,25;	0,0;	0,0
293,86993408203125;	200,5;	0,0;	0,0
293,9002685546875;	226,5;	0,0;	0,0
293,93060302734375;	209,5;	0,0;	0,0
293,9609069824219;	193,5;	0,0;	0,0
293,9912109375;	176,0;	0,0;	0,0
294,0215148925781;	178,25;	0,0;	0,0
294,05181884765625;	207,25;	0,0;	0,0
294,08209228515625;	256,75;	0,0;	0,0
294,11236572265625;	320,25;	0,0;	0,0
294,14263916015625;	212,5;	0,0;	0,0
294,17291259765625;	164,0;	0,0;	0,0
294,2031555175781;	173,5;	0,0;	0,0
294,2333984375;	178,25;	0,0;	0,0
294,263671875;	179,5;	0,0;	0,0
294,29388427734375;	171,75;	0,0;	0,0
294,3240966796875;	164,5;	0,0;	0,0
294,3543395996094;	190,75;	0,0;	0,0
294,384521484375;	284,0;	0,0;	0,0
294,41473388671875;	364,75;	0,0;	0,0
294,4449157714844;	243,25;	0,0;	0,0
294,4751281738281;	198,75;	0,0;	0,0
294,5052795410156;	182,75;	0,0;	0,0
294,53546142578125;	156,0;	0,0;	0,0
294,5656433105469;	160,25;	0,0;	0,0
294,59576416015625;	184,0;	0,0;	0,0
294,6259460449219;	169,75;	0,0;	0,0
294,65606689453125;	201,25;	0,0;	0,0
294,6861877441406;	281,0;	0,0;	0,0
294,7163391113281;	487,0;	0,0;	0,0
294,7464294433594;	889,0;	0,0;	0,0
294,77655029296875;	617,75;	0,0;	0,0
294,806640625;	300,0;	0,0;	0,0
294,8367614746094;	253,0;	0,0;	0,0
294,8668518066406;	260,0;	0,0;	0,0
294,89691162109375;	299,0;	0,0;	0,0
294,927001953125;	250,25;	0,0;	0,0
294,9570617675781;	220,5;	0,0;	0,0
294,98712158203125;	203,0;	0,0;	0,0
295,0171813964844;	219,5;	0,0;	0,0
295,04718017578125;	182,0;	0,0;	0,0
295,0772399902344;	177,5;	0,0;	0,0
295,1072692871094;	163,25;	0,0;	0,0
295,1372985839844;	184,0;	0,0;	0,0
295,16729736328125;	163,75;	0,0;	0,0
295,1972961425781;	162,5;	0,0;	0,0
295,227294921875;	184,25;	0,0;	0,0
295,2572937011719;	195,0;	0,0;	0,0
295,2872619628906;	218,0;	0,0;	0,0
295,3172607421875;	353,75;	0,0;	0,0
295,3471984863281;	625,75;	0,0;	0,0
295,377197265625;	568,0;	0,0;	0,0
295,4071044921875;	283,5;	0,0;	0,0
295,43707275390625;	202,0;	0,0;	0,0
295,46697998046875;	183,75;	0,0;	0,0
295,4969482421875;	161,75;	0,0;	0,0
295,52685546875;	175,0;	0,0;	0,0
295,5567626953125;	171,75;	0,0;	0,0
295,586669921875;	174,5;	0,0;	0,0
295,6165466308594;	176,25;	0,0;	0,0
295,646484375;	219,75;	0,0;	0,0
295,6763000488281;	309,0;	0,0;	0,0
295,7061767578125;	480,25;	0,0;	0,0
295,736083984375;	333,25;	0,0;	0,0
295,76593017578125;	191,0;	0,0;	0,0
295,7957763671875;	179,75;	0,0;	0,0
295,82562255859375;	162,5;	0,0;	0,0
295,8554382324219;	171,0;	0,0;	0,0
295,8852844238281;	191,5;	0,0;	0,0
295,91510009765625;	200,0;	0,0;	0,0
295,9449157714844;	292,25;	0,0;	0,0
295,9747314453125;	265,25;	0,0;	0,0
296,0044860839844;	211,0;	0,0;	0,0
296,0343017578125;	193,75;	0,0;	0,0
296,0640869140625;	176,5;	0,0;	0,0
296,0938720703125;	182,0;	0,0;	0,0
296,1236267089844;	171,0;	0,0;	0,0
296,1533508300781;	158,5;	0,0;	0,0
296,1831359863281;	159,75;	0,0;	0,0
296,2128601074219;	165,75;	0,0;	0,0
296,24261474609375;	179,5;	0,0;	0,0
296,2723388671875;	163,5;	0,0;	0,0
296,30206298828125;	166,75;	0,0;	0,0
296,331787109375;	179,25;	0,0;	0,0
296,36151123046875;	188,75;	0,0;	0,0
296,3912048339844;	199,25;	0,0;	0,0
296,4208679199219;	212,75;	0,0;	0,0
296,4505615234375;	331,25;	0,0;	0,0
296,4802551269531;	438,0;	0,0;	0,0
296,5099182128906;	409,75;	0,0;	0,0
296,5395812988281;	256,5;	0,0;	0,0
296,5691833496094;	236,25;	0,0;	0,0
296,598876953125;	303,5;	0,0;	0,0
296,62847900390625;	606,0;	0,0;	0,0
296,6581115722656;	947,75;	0,0;	0,0
296,687744140625;	643,25;	0,0;	0,0
296,71734619140625;	248,0;	0,0;	0,0
296,7469482421875;	191,75;	0,0;	0,0
296,77655029296875;	174,0;	0,0;	0,0
296,80615234375;	177,75;	0,0;	0,0
296,8357238769531;	200,0;	0,0;	0,0
296,8652648925781;	186,0;	0,0;	0,0
296,8948669433594;	297,75;	0,0;	0,0
296,9244079589844;	384,5;	0,0;	0,0
296,9539794921875;	473,75;	0,0;	0,0
296,9835205078125;	540,0;	0,0;	0,0
297,0130615234375;	388,5;	0,0;	0,0
297,0425720214844;	244,25;	0,0;	0,0
297,0721130371094;	176,25;	0,0;	0,0
297,1016540527344;	189,25;	0,0;	0,0
297,131103515625;	184,5;	0,0;	0,0
297,16064453125;	192,75;	0,0;	0,0
297,19012451171875;	211,0;	0,0;	0,0
297,2196044921875;	266,5;	0,0;	0,0
297,24908447265625;	511,5;	0,0;	0,0
297,2785339355469;	1018,25;	0,0;	0,0
297,3080139160156;	845,25;	0,0;	0,0
297,33746337890625;	354,0;	0,0;	0,0
297,3669128417969;	205,75;	0,0;	0,0
297,3963317871094;	183,75;	0,0;	0,0
297,4257507324219;	172,5;	0,0;	0,0
297,4551696777344;	156,0;	0,0;	0,0
297,4845886230469;	159,0;	0,0;	0,0
297,5140075683594;	167,75;	0,0;	0,0
297,54339599609375;	199,75;	0,0;	0,0
297,5727844238281;	199,25;	0,0;	0,0
297,6021728515625;	176,0;	0,0;	0,0
297,63153076171875;	155,0;	0,0;	0,0
297,6609191894531;	163,75;	0,0;	0,0
297,6902770996094;	148,25;	0,0;	0,0
297,7196044921875;	172,5;	0,0;	0,0
297,74896240234375;	175,0;	0,0;	0,0
297,7782897949219;	156,0;	0,0;	0,0
297,8076477050781;	149,25;	0,0;	0,0
297,8369445800781;	176,5;	0,0;	0,0
297,8662414550781;	184,75;	0,0;	0,0
297,89556884765625;	197,5;	0,0;	0,0
297,9248352050781;	188,5;	0,0;	0,0
297,95416259765625;	178,0;	0,0;	0,0
297,9834289550781;	168,25;	0,0;	0,0
298,0126953125;	186,25;	0,0;	0,0
298,0419616699219;	190,25;	0,0;	0,0
298,07122802734375;	270,25;	0,0;	0,0
298,1004943847656;	373,0;	0,0;	0,0
298,1297302246094;	426,0;	0,0;	0,0
298,1589660644531;	291,5;	0,0;	0,0
298,1882019042969;	236,0;	0,0;	0,0
298,2173767089844;	178,5;	0,0;	0,0
298,2466125488281;	197,0;	0,0;	0,0
298,27581787109375;	329,0;	0,0;	0,0
298,3050231933594;	615,25;	0,0;	0,0
298,3341979980469;	844,5;	0,0;	0,0
298,3634338378906;	456,25;	0,0;	0,0
298,392578125;	291,0;	0,0;	0,0
298,42169189453125;	446,5;	0,0;	0,0
298,4508972167969;	729,0;	0,0;	0,0
298,48004150390625;	531,25;	0,0;	0,0
298,5091857910156;	409,0;	0,0;	0,0
298,538330078125;	354,0;	0,0;	0,0
298,56744384765625;	220,75;	0,0;	0,0
298,5965576171875;	192,0;	0,0;	0,0
298,62567138671875;	203,0;	0,0;	0,0
298,65478515625;	232,0;	0,0;	0,0
298,6838684082031;	261,5;	0,0;	0,0
298,71295166015625;	264,75;	0,0;	0,0
298,7420349121094;	213,5;	0,0;	0,0
298,7711181640625;	158,5;	0,0;	0,0
298,8002014160156;	170,0;	0,0;	0,0
298,8292236328125;	164,75;	0,0;	0,0
298,8582763671875;	171,25;	0,0;	0,0
298,8873291015625;	167,25;	0,0;	0,0
298,9163513183594;	175,75;	0,0;	0,0
298,9454040527344;	164,0;	0,0;	0,0
298,9743957519531;	202,25;	0,0;	0,0
299,00341796875;	244,5;	0,0;	0,0
299,03240966796875;	202,5;	0,0;	0,0
299,0613708496094;	166,75;	0,0;	0,0
299,0904235839844;	171,5;	0,0;	0,0
299,119384765625;	183,5;	0,0;	0,0
299,1483459472656;	179,25;	0,0;	0,0
299,17730712890625;	179,75;	0,0;	0,0
299,20623779296875;	164,25;	0,0;	0,0
299,2351989746094;	134,75;	0,0;	0,0
299,2641296386719;	171,75;	0,0;	0,0
299,2930908203125;	187,0;	0,0;	0,0
299,3219909667969;	206,25;	0,0;	0,0
299,3509521484375;	284,0;	0,0;	0,0
299,3798522949219;	521,25;	0,0;	0,0
299,40875244140625;	871,75;	0,0;	0,0
299,4376220703125;	613,0;	0,0;	0,0
299,4665222167969;	262,5;	0,0;	0,0
299,4953918457031;	199,0;	0,0;	0,0
299,5242614746094;	178,5;	0,0;	0,0
299,5531005859375;	166,75;	0,0;	0,0
299,5820007324219;	173,5;	0,0;	0,0
299,6108093261719;	197,75;	0,0;	0,0
299,63970947265625;	179,5;	0,0;	0,0
299,66851806640625;	166,25;	0,0;	0,0
299,69732666015625;	167,25;	0,0;	0,0
299,72613525390625;	169,75;	0,0;	0,0
299,75494384765625;	168,75;	0,0;	0,0
299,78375244140625;	174,25;	0,0;	0,0
299,8125305175781;	179,5;	0,0;	0,0
299,84130859375;	202,0;	0,0;	0,0
299,8700866699219;	277,25;	0,0;	0,0
299,89886474609375;	539,75;	0,0;	0,0
299,9276428222656;	650,5;	0,0;	0,0
299,9563903808594;	408,25;	0,0;	0,0
299,9851379394531;	308,0;	0,0;	0,0
300,01385498046875;	381,5;	0,0;	0,0
300,0426025390625;	653,25;	0,0;	0,0
300,0713195800781;	763,75;	0,0;	0,0
300,10003662109375;	456,0;	0,0;	0,0
300,1287536621094;	222,0;	0,0;	0,0
300,1574401855469;	196,25;	0,0;	0,0
300,1861267089844;	245,5;	0,0;	0,0
300,2148132324219;	374,25;	0,0;	0,0
300,2434997558594;	434,5;	0,0;	0,0
300,2721862792969;	387,5;	0,0;	0,0
300,3008117675781;	269,0;	0,0;	0,0
300,3294982910156;	200,25;	0,0;	0,0
300,3581237792969;	186,5;	0,0;	0,0
300,3867492675781;	178,25;	0,0;	0,0
300,4153747558594;	166,75;	0,0;	0,0
300,4440002441406;	178,5;	0,0;	0,0
300,4726257324219;	179,0;	0,0;	0,0
300,5012512207031;	175,75;	0,0;	0,0
300,52978515625;	185,5;	0,0;	0,0
300,55841064453125;	179,25;	0,0;	0,0
300,5870056152344;	171,75;	0,0;	0,0
300,6155700683594;	186,0;	0,0;	0,0
300,6441345214844;	250,75;	0,0;	0,0
300,67266845703125;	345,75;	0,0;	0,0
300,7012634277344;	404,0;	0,0;	0,0
300,7297668457031;	327,25;	0,0;	0,0
300,75830078125;	470,5;	0,0;	0,0
300,786865234375;	646,25;	0,0;	0,0
300,8153381347656;	384,25;	0,0;	0,0
300,8438720703125;	245,5;	0,0;	0,0
300,87237548828125;	248,0;	0,0;	0,0
300,90087890625;	394,75;	0,0;	0,0
300,9293518066406;	470,5;	0,0;	0,0
300,95782470703125;	333,0;	0,0;	0,0
300,9862976074219;	191,75;	0,0;	0,0
301,0147705078125;	160,5;	0,0;	0,0
301,0432434082031;	164,25;	0,0;	0,0
301,0716552734375;	169,75;	0,0;	0,0
301,1001281738281;	208,5;	0,0;	0,0
301,1285705566406;	224,75;	0,0;	0,0
301,1569519042969;	197,75;	0,0;	0,0
301,1853942871094;	169,5;	0,0;	0,0
301,2137756347656;	178,75;	0,0;	0,0
301,2422180175781;	168,25;	0,0;	0,0
301,2705993652344;	161,25;	0,0;	0,0
301,2989807128906;	158,75;	0,0;	0,0
301,3273620605469;	177,75;	0,0;	0,0
301,355712890625;	157,25;	0,0;	0,0
301,38409423828125;	179,5;	0,0;	0,0
301,4124450683594;	165,5;	0,0;	0,0
301,4407958984375;	183,75;	0,0;	0,0
301,4691162109375;	166,75;	0,0;	0,0
301,4974365234375;	175,5;	0,0;	0,0
301,5257873535156;	191,25;	0,0;	0,0
301,5541076660156;	233,75;	0,0;	0,0
301,5824279785156;	257,75;	0,0;	0,0
301,6106872558594;	243,75;	0,0;	0,0
301,63897705078125;	198,75;	0,0;	0,0
301,66729736328125;	181,5;	0,0;	0,0
301,6955261230469;	259,75;	0,0;	0,0
301,7238464355469;	321,75;	0,0;	0,0
301,7520751953125;	358,25;	0,0;	0,0
301,78033447265625;	204,75;	0,0;	0,0
301,80859375;	226,75;	0,0;	0,0
301,8367919921875;	299,75;	0,0;	0,0
301,86505126953125;	434,25;	0,0;	0,0
301,89324951171875;	334,0;	0,0;	0,0
301,92144775390625;	285,75;	0,0;	0,0
301,9496765136719;	343,25;	0,0;	0,0
301,9778747558594;	618,75;	0,0;	0,0
302,0060729980469;	1336,5;	0,0;	0,0
302,03424072265625;	2037,5;	0,0;	0,0
302,06243896484375;	1638,25;	0,0;	0,0
302,0906066894531;	1087,5;	0,0;	0,0
302,11871337890625;	509,75;	0,0;	0,0
302,1468811035156;	249,25;	0,0;	0,0
302,1750183105469;	209,75;	0,0;	0,0
302,2031555175781;	179,5;	0,0;	0,0
302,2312927246094;	182,25;	0,0;	0,0
302,2593994140625;	170,75;	0,0;	0,0
302,28753662109375;	182,5;	0,0;	0,0
302,31561279296875;	217,75;	0,0;	0,0
302,3437194824219;	285,75;	0,0;	0,0
302,3717956542969;	399,0;	0,0;	0,0
302,39990234375;	287,75;	0,0;	0,0
302,4279479980469;	214,75;	0,0;	0,0
302,45599365234375;	223,25;	0,0;	0,0
302,48406982421875;	296,25;	0,0;	0,0
302,5120849609375;	476,0;	0,0;	0,0
302,5401611328125;	776,75;	0,0;	0,0
302,56817626953125;	630,75;	0,0;	0,0
302,59619140625;	413,0;	0,0;	0,0
302,6242370605469;	347,5;	0,0;	0,0
302,6522216796875;	223,0;	0,0;	0,0
302,68023681640625;	175,25;	0,0;	0,0
302,7082214355469;	173,75;	0,0;	0,0
302,7362060546875;	152,5;	0,0;	0,0
302,7641906738281;	162,75;	0,0;	0,0
302,7921447753906;	171,5;	0,0;	0,0
302,8200988769531;	191,5;	0,0;	0,0
302,8480529785156;	179,75;	0,0;	0,0
302,8760070800781;	155,75;	0,0;	0,0
302,9039306640625;	184,75;	0,0;	0,0
302,9318542480469;	208,25;	0,0;	0,0
302,95977783203125;	265,75;	0,0;	0,0
302,9876708984375;	300,25;	0,0;	0,0
303,0155944824219;	249,75;	0,0;	0,0
303,0434875488281;	210,75;	0,0;	0,0
303,0713806152344;	287,5;	0,0;	0,0
303,0992736816406;	365,25;	0,0;	0,0
303,12713623046875;	369,0;	0,0;	0,0
303,155029296875;	264,25;	0,0;	0,0
303,182861328125;	199,25;	0,0;	0,0
303,2107238769531;	153,75;	0,0;	0,0
303,238525390625;	165,5;	0,0;	0,0
303,2663879394531;	180,0;	0,0;	0,0
303,294189453125;	167,5;	0,0;	0,0
303,322021484375;	177,5;	0,0;	0,0
303,349853515625;	180,25;	0,0;	0,0
303,3776550292969;	160,25;	0,0;	0,0
303,4054260253906;	167,5;	0,0;	0,0
303,4332275390625;	174,75;	0,0;	0,0
303,4609680175781;	168,75;	0,0;	0,0
303,48876953125;	165,5;	0,0;	0,0
303,5165100097656;	176,5;	0,0;	0,0
303,54425048828125;	190,25;	0,0;	0,0
303,572021484375;	174,75;	0,0;	0,0
303,5997619628906;	196,25;	0,0;	0,0
303,62750244140625;	219,25;	0,0;	0,0
303,6551818847656;	294,75;	0,0;	0,0
303,6828918457031;	604,0;	0,0;	0,0
303,71063232421875;	745,25;	0,0;	0,0
303,7383117675781;	468,0;	0,0;	0,0
303,7660217285156;	250,0;	0,0;	0,0
303,7936706542969;	182,75;	0,0;	0,0
303,82135009765625;	170,0;	0,0;	0,0
303,8490295410156;	167,0;	0,0;	0,0
303,8766784667969;	180,5;	0,0;	0,0
303,90435791015625;	184,5;	0,0;	0,0
303,9319763183594;	182,75;	0,0;	0,0
303,9596252441406;	186,5;	0,0;	0,0
303,98724365234375;	241,0;	0,0;	0,0
304,014892578125;	285,75;	0,0;	0,0
304,04248046875;	242,25;	0,0;	0,0
304,070068359375;	205,25;	0,0;	0,0
304,0976867675781;	237,75;	0,0;	0,0
304,1252746582031;	355,5;	0,0;	0,0
304,1528625488281;	423,25;	0,0;	0,0
304,180419921875;	336,5;	0,0;	0,0
304,2079772949219;	301,0;	0,0;	0,0
304,23553466796875;	316,75;	0,0;	0,0
304,2630920410156;	237,75;	0,0;	0,0
304,2906188964844;	178,5;	0,0;	0,0
304,31817626953125;	173,75;	0,0;	0,0
304,3456726074219;	166,0;	0,0;	0,0
304,3731994628906;	159,75;	0,0;	0,0
304,4006652832031;	148,25;	0,0;	0,0
304,42822265625;	168,75;	0,0;	0,0
304,4556884765625;	184,75;	0,0;	0,0
304,483154296875;	166,5;	0,0;	0,0
304,5106506347656;	161,25;	0,0;	0,0
304,5381164550781;	169,0;	0,0;	0,0
304,5655822753906;	155,75;	0,0;	0,0
304,593017578125;	179,25;	0,0;	0,0
304,6204528808594;	185,75;	0,0;	0,0
304,6479187011719;	210,0;	0,0;	0,0
304,6753234863281;	310,5;	0,0;	0,0
304,7027587890625;	607,75;	0,0;	0,0
304,73016357421875;	837,0;	0,0;	0,0
304,757568359375;	517,75;	0,0;	0,0
304,78497314453125;	264,5;	0,0;	0,0
304,81231689453125;	181,25;	0,0;	0,0
304,8397216796875;	188,25;	0,0;	0,0
304,8670654296875;	186,5;	0,0;	0,0
304,89447021484375;	154,25;	0,0;	0,0
304,92181396484375;	150,75;	0,0;	0,0
304,9491882324219;	152,0;	0,0;	0,0
304,97650146484375;	152,5;	0,0;	0,0
305,0038146972656;	163,25;	0,0;	0,0
305,0311584472656;	170,0;	0,0;	0,0
305,0584716796875;	186,75;	0,0;	0,0
305,0857849121094;	190,0;	0,0;	0,0
305,1130676269531;	149,25;	0,0;	0,0
305,1403503417969;	146,0;	0,0;	0,0
305,1676330566406;	172,5;	0,0;	0,0
305,1949157714844;	162,75;	0,0;	0,0
305,22222900390625;	167,0;	0,0;	0,0
305,24945068359375;	179,0;	0,0;	0,0
305,27667236328125;	194,0;	0,0;	0,0
305,303955078125;	168,75;	0,0;	0,0
305,3311767578125;	156,75;	0,0;	0,0
305,3583984375;	175,5;	0,0;	0,0
305,3856201171875;	169,5;	0,0;	0,0
305,4128112792969;	169,5;	0,0;	0,0
305,4400329589844;	170,25;	0,0;	0,0
305,46722412109375;	205,75;	0,0;	0,0
305,4944152832031;	214,75;	0,0;	0,0
305,5215759277344;	203,25;	0,0;	0,0
305,54876708984375;	180,25;	0,0;	0,0
305,575927734375;	186,0;	0,0;	0,0
305,6030578613281;	201,25;	0,0;	0,0
305,6302490234375;	221,75;	0,0;	0,0
305,6573791503906;	323,5;	0,0;	0,0
305,6844787597656;	560,5;	0,0;	0,0
305,7116394042969;	849,5;	0,0;	0,0
305,73876953125;	625,0;	0,0;	0,0
305,7658386230469;	287,25;	0,0;	0,0
305,7929382324219;	244,25;	0,0;	0,0
305,820068359375;	276,75;	0,0;	0,0
305,84710693359375;	543,25;	0,0;	0,0
305,87420654296875;	817,0;	0,0;	0,0
305,9012756347656;	570,0;	0,0;	0,0
305,9283142089844;	277,0;	0,0;	0,0
305,95538330078125;	180,25;	0,0;	0,0
305,982421875;	144,5;	0,0;	0,0
306,00946044921875;	167,5;	0,0;	0,0
306,0364990234375;	187,0;	0,0;	0,0
306,0634765625;	195,5;	0,0;	0,0
306,09051513671875;	152,5;	0,0;	0,0
306,11749267578125;	152,75;	0,0;	0,0
306,14453125;	168,25;	0,0;	0,0
306,1714782714844;	194,0;	0,0;	0,0
306,1984558105469;	176,75;	0,0;	0,0
306,2254333496094;	179,25;	0,0;	0,0
306,25238037109375;	175,25;	0,0;	0,0
306,2793884277344;	165,0;	0,0;	0,0
306,3063049316406;	162,5;	0,0;	0,0
306,3332214355469;	156,25;	0,0;	0,0
306,36016845703125;	155,0;	0,0;	0,0
306,3870849609375;	157,0;	0,0;	0,0
306,4140319824219;	174,0;	0,0;	0,0
306,44091796875;	155,75;	0,0;	0,0
306,4678039550781;	170,5;	0,0;	0,0
306,49468994140625;	157,0;	0,0;	0,0
306,5215759277344;	179,5;	0,0;	0,0
306,5484619140625;	159,5;	0,0;	0,0
306,5753173828125;	185,25;	0,0;	0,0
306,6021728515625;	216,25;	0,0;	0,0
306,6290283203125;	244,5;	0,0;	0,0
306,6558837890625;	373,75;	0,0;	0,0
306,6827087402344;	660,75;	0,0;	0,0
306,7095031738281;	528,0;	0,0;	0,0
306,7363586425781;	294,0;	0,0;	0,0
306,7631530761719;	217,25;	0,0;	0,0
306,7899475097656;	234,75;	0,0;	0,0
306,8167724609375;	174,75;	0,0;	0,0
306,843505859375;	161,5;	0,0;	0,0
306,87030029296875;	162,0;	0,0;	0,0
306,8970642089844;	169,0;	0,0;	0,0
306,9238586425781;	179,75;	0,0;	0,0
306,9505920410156;	146,75;	0,0;	0,0
306,9773254394531;	169,25;	0,0;	0,0
307,00408935546875;	166,5;	0,0;	0,0
307,0307922363281;	162,0;	0,0;	0,0
307,0575256347656;	155,25;	0,0;	0,0
307,084228515625;	170,75;	0,0;	0,0
307,1109313964844;	163,5;	0,0;	0,0
307,13763427734375;	180,75;	0,0;	0,0
307,164306640625;	170,5;	0,0;	0,0
307,1910095214844;	165,0;	0,0;	0,0
307,2176818847656;	164,75;	0,0;	0,0
307,24432373046875;	168,25;	0,0;	0,0
307,27099609375;	169,25;	0,0;	0,0
307,2976379394531;	158,25;	0,0;	0,0
307,3243103027344;	145,0;	0,0;	0,0
307,35089111328125;	158,25;	0,0;	0,0
307,37750244140625;	180,0;	0,0;	0,0
307,4041442871094;	170,0;	0,0;	0,0
307,43072509765625;	166,0;	0,0;	0,0
307,4573669433594;	206,0;	0,0;	0,0
307,48394775390625;	238,0;	0,0;	0,0
307,510498046875;	373,5;	0,0;	0,0
307,5370788574219;	545,0;	0,0;	0,0
307,5636901855469;	441,5;	0,0;	0,0
307,5902404785156;	251,5;	0,0;	0,0
307,61676025390625;	185,0;	0,0;	0,0
307,643310546875;	167,75;	0,0;	0,0
307,6698303222656;	212,5;	0,0;	0,0
307,6963806152344;	200,25;	0,0;	0,0
307,722900390625;	199,25;	0,0;	0,0
307,7493896484375;	187,5;	0,0;	0,0
307,7759094238281;	186,25;	0,0;	0,0
307,8023986816406;	205,75;	0,0;	0,0
307,82891845703125;	197,0;	0,0;	0,0
307,8553466796875;	180,5;	0,0;	0,0
307,8818359375;	178,25;	0,0;	0,0
307,9082946777344;	174,5;	0,0;	0,0
307,93475341796875;	152,75;	0,0;	0,0
307,961181640625;	160,5;	0,0;	0,0
307,9876403808594;	181,75;	0,0;	0,0
308,0140380859375;	185,5;	0,0;	0,0
308,04046630859375;	175,75;	0,0;	0,0
308,0668640136719;	155,75;	0,0;	0,0
308,09332275390625;	157,25;	0,0;	0,0
308,11968994140625;	170,75;	0,0;	0,0
308,1460876464844;	214,25;	0,0;	0,0
308,1724548339844;	233,75;	0,0;	0,0
308,1988220214844;	229,75;	0,0;	0,0
308,2251892089844;	204,5;	0,0;	0,0
308,2515563964844;	180,75;	0,0;	0,0
308,27789306640625;	228,5;	0,0;	0,0
308,3042297363281;	267,25;	0,0;	0,0
308,33056640625;	387,75;	0,0;	0,0
308,3569030761719;	400,75;	0,0;	0,0
308,3832092285156;	241,25;	0,0;	0,0
308,40948486328125;	184,25;	0,0;	0,0
308,435791015625;	169,0;	0,0;	0,0
308,46209716796875;	148,25;	0,0;	0,0
308,4884033203125;	154,25;	0,0;	0,0
308,5146484375;	152,5;	0,0;	0,0
308,54095458984375;	168,0;	0,0;	0,0
308,56719970703125;	159,5;	0,0;	0,0
308,59344482421875;	146,5;	0,0;	0,0
308,61968994140625;	157,5;	0,0;	0,0
308,6458740234375;	164,75;	0,0;	0,0
308,6721496582031;	164,0;	0,0;	0,0
308,6983642578125;	160,75;	0,0;	0,0
308,72454833984375;	176,25;	0,0;	0,0
308,7507629394531;	166,25;	0,0;	0,0
308,77691650390625;	185,75;	0,0;	0,0
308,80316162109375;	157,0;	0,0;	0,0
308,8293151855469;	151,75;	0,0;	0,0
308,8554992675781;	160,5;	0,0;	0,0
308,88165283203125;	155,0;	0,0;	0,0
308,90777587890625;	160,75;	0,0;	0,0
308,9339294433594;	165,5;	0,0;	0,0
308,9600524902344;	171,75;	0,0;	0,0
308,9862060546875;	175,25;	0,0;	0,0
309,0123291015625;	174,0;	0,0;	0,0
309,0384216308594;	167,75;	0,0;	0,0
309,0645446777344;	197,75;	0,0;	0,0
309,0906066894531;	250,25;	0,0;	0,0
309,1167297363281;	322,5;	0,0;	0,0
309,1427917480469;	307,0;	0,0;	0,0
309,1688537597656;	224,75;	0,0;	0,0
309,1949462890625;	232,25;	0,0;	0,0
309,2209777832031;	312,5;	0,0;	0,0
309,2470397949219;	351,25;	0,0;	0,0
309,2730712890625;	275,5;	0,0;	0,0
309,299072265625;	182,25;	0,0;	0,0
309,3251037597656;	207,5;	0,0;	0,0
309,35113525390625;	195,75;	0,0;	0,0
309,37713623046875;	174,5;	0,0;	0,0
309,4031066894531;	169,25;	0,0;	0,0
309,42913818359375;	164,5;	0,0;	0,0
309,4551086425781;	171,75;	0,0;	0,0
309,4810791015625;	159,75;	0,0;	0,0
309,5070495605469;	165,75;	0,0;	0,0
309,5329895019531;	169,0;	0,0;	0,0
309,5589599609375;	168,25;	0,0;	0,0
309,5848693847656;	177,25;	0,0;	0,0
309,61083984375;	169,75;	0,0;	0,0
309,63671875;	173,25;	0,0;	0,0
309,66265869140625;	149,5;	0,0;	0,0
309,6885681152344;	173,5;	0,0;	0,0
309,7144470214844;	183,0;	0,0;	0,0
309,7403564453125;	184,25;	0,0;	0,0
309,7662048339844;	179,0;	0,0;	0,0
309,7920837402344;	185,25;	0,0;	0,0
309,8179626464844;	164,25;	0,0;	0,0
309,84381103515625;	205,0;	0,0;	0,0
309,86968994140625;	206,0;	0,0;	0,0
309,8955078125;	234,0;	0,0;	0,0
309,9213562011719;	343,5;	0,0;	0,0
309,9471740722656;	614,0;	0,0;	0,0
309,9729919433594;	779,0;	0,0;	0,0
309,9988098144531;	742,5;	0,0;	0,0
310,02459716796875;	605,5;	0,0;	0,0
310,0503845214844;	488,25;	0,0;	0,0
310,076171875;	303,5;	0,0;	0,0
310,10198974609375;	219,0;	0,0;	0,0
310,12774658203125;	207,25;	0,0;	0,0
310,1534729003906;	193,25;	0,0;	0,0
310,17919921875;	184,0;	0,0;	0,0
310,2049865722656;	170,75;	0,0;	0,0
310,2307434082031;	153,0;	0,0;	0,0
310,2564392089844;	157,5;	0,0;	0,0
310,28216552734375;	162,5;	0,0;	0,0
310,307861328125;	171,0;	0,0;	0,0
310,33355712890625;	159,25;	0,0;	0,0
310,3592834472656;	170,5;	0,0;	0,0
310,38494873046875;	164,75;	0,0;	0,0
310,4106140136719;	149,75;	0,0;	0,0
310,4363098144531;	160,5;	0,0;	0,0
310,4619445800781;	160,5;	0,0;	0,0
310,4876403808594;	162,25;	0,0;	0,0
310,51324462890625;	159,75;	0,0;	0,0
310,53887939453125;	143,75;	0,0;	0,0
310,56451416015625;	157,75;	0,0;	0,0
310,5901184082031;	162,25;	0,0;	0,0
310,6157531738281;	161,5;	0,0;	0,0
310,641357421875;	161,75;	0,0;	0,0
310,66693115234375;	156,25;	0,0;	0,0
310,6925354003906;	155,75;	0,0;	0,0
310,71807861328125;	158,0;	0,0;	0,0
310,7436828613281;	164,75;	0,0;	0,0
310,76922607421875;	160,25;	0,0;	0,0
310,7947692871094;	147,5;	0,0;	0,0
310,8203430175781;	151,25;	0,0;	0,0
310,84588623046875;	159,5;	0,0;	0,0
310,87139892578125;	156,75;	0,0;	0,0
310,89691162109375;	156,0;	0,0;	0,0
310,92242431640625;	173,75;	0,0;	0,0
310,9479675292969;	149,0;	0,0;	0,0
310,9734802246094;	165,25;	0,0;	0,0
310,9989318847656;	185,75;	0,0;	0,0
311,0244140625;	164,5;	0,0;	0,0
311,0498352050781;	169,25;	0,0;	0,0
311,0753479003906;	166,5;	0,0;	0,0
311,100830078125;	151,5;	0,0;	0,0
311,1262512207031;	161,25;	0,0;	0,0
311,15167236328125;	182,25;	0,0;	0,0
311,1771240234375;	168,5;	0,0;	0,0
311,2025146484375;	150,75;	0,0;	0,0
311,2279357910156;	158,75;	0,0;	0,0
311,25335693359375;	146,5;	0,0;	0,0
311,27874755859375;	152,0;	0,0;	0,0
311,30413818359375;	162,25;	0,0;	0,0
311,3294982910156;	163,25;	0,0;	0,0
311,3548889160156;	154,25;	0,0;	0,0
311,3802490234375;	156,25;	0,0;	0,0
311,40557861328125;	152,0;	0,0;	0,0
311,43096923828125;	153,5;	0,0;	0,0
311,456298828125;	154,5;	0,0;	0,0
311,4816589355469;	155,5;	0,0;	0,0
311,5069274902344;	164,0;	0,0;	0,0
311,5322570800781;	155,5;	0,0;	0,0
311,55755615234375;	173,75;	0,0;	0,0
311,5828552246094;	170,25;	0,0;	0,0
311,608154296875;	202,75;	0,0;	0,0
311,6334533691406;	230,5;	0,0;	0,0
311,65869140625;	186,75;	0,0;	0,0
311,6839904785156;	166,75;	0,0;	0,0
311,709228515625;	173,0;	0,0;	0,0
311,7344970703125;	149,75;	0,0;	0,0
311,75970458984375;	159,25;	0,0;	0,0
311,7849426269531;	173,25;	0,0;	0,0
311,8101806640625;	165,75;	0,0;	0,0
311,8354187011719;	151,0;	0,0;	0,0
311,8606262207031;	139,25;	0,0;	0,0
311,88580322265625;	174,0;	0,0;	0,0
311,9110107421875;	184,5;	0,0;	0,0
311,9361572265625;	184,75;	0,0;	0,0
311,96136474609375;	161,5;	0,0;	0,0
311,98651123046875;	153,0;	0,0;	0,0
312,01165771484375;	182,0;	0,0;	0,0
312,0368347167969;	191,25;	0,0;	0,0
312,06195068359375;	170,25;	0,0;	0,0
312,08709716796875;	140,75;	0,0;	0,0
312,1122131347656;	148,5;	0,0;	0,0
312,1373291015625;	162,5;	0,0;	0,0
312,1624450683594;	164,5;	0,0;	0,0
312,1875305175781;	158,5;	0,0;	0,0
312,212646484375;	165,25;	0,0;	0,0
312,2377014160156;	168,75;	0,0;	0,0
312,2627868652344;	147,25;	0,0;	0,0
312,2878723144531;	167,75;	0,0;	0,0
312,3128967285156;	142,25;	0,0;	0,0
312,3379821777344;	150,5;	0,0;	0,0
312,3630065917969;	168,75;	0,0;	0,0
312,3880310058594;	160,5;	0,0;	0,0
312,4130554199219;	165,75;	0,0;	0,0
312,4380798339844;	169,0;	0,0;	0,0
312,4631042480469;	169,25;	0,0;	0,0
312,48809814453125;	174,25;	0,0;	0,0
312,5130615234375;	232,25;	0,0;	0,0
312,5380859375;	249,25;	0,0;	0,0
312,56304931640625;	228,0;	0,0;	0,0
312,5880126953125;	188,0;	0,0;	0,0
312,6129455566406;	176,5;	0,0;	0,0
312,6379089355469;	175,0;	0,0;	0,0
312,662841796875;	153,0;	0,0;	0,0
312,68780517578125;	144,0;	0,0;	0,0
312,71270751953125;	161,5;	0,0;	0,0
312,73760986328125;	164,75;	0,0;	0,0
312,7625427246094;	169,0;	0,0;	0,0
312,7874450683594;	158,5;	0,0;	0,0
312,8123474121094;	157,0;	0,0;	0,0
312,83721923828125;	157,25;	0,0;	0,0
312,862060546875;	167,25;	0,0;	0,0
312,886962890625;	170,0;	0,0;	0,0
312,91180419921875;	161,75;	0,0;	0,0
312,9366760253906;	176,0;	0,0;	0,0
312,9615173339844;	152,5;	0,0;	0,0
312,9862976074219;	161,0;	0,0;	0,0
313,01116943359375;	164,0;	0,0;	0,0
313,0359802246094;	167,25;	0,0;	0,0
313,060791015625;	150,5;	0,0;	0,0
313,0855712890625;	154,75;	0,0;	0,0
313,1103820800781;	159,5;	0,0;	0,0
313,1351623535156;	152,5;	0,0;	0,0
313,159912109375;	176,0;	0,0;	0,0
313,1846923828125;	181,75;	0,0;	0,0
313,2094421386719;	164,75;	0,0;	0,0
313,23419189453125;	190,25;	0,0;	0,0
313,2589416503906;	167,25;	0,0;	0,0
313,2836608886719;	172,0;	0,0;	0,0
313,30841064453125;	163,75;	0,0;	0,0
313,3331298828125;	197,75;	0,0;	0,0
313,3578186035156;	202,0;	0,0;	0,0
313,3825378417969;	220,5;	0,0;	0,0
313,4071960449219;	195,0;	0,0;	0,0
313,4319152832031;	164,75;	0,0;	0,0
313,4565734863281;	174,25;	0,0;	0,0
313,4812316894531;	177,5;	0,0;	0,0
313,50592041015625;	185,25;	0,0;	0,0
313,53057861328125;	177,0;	0,0;	0,0
313,5552062988281;	173,75;	0,0;	0,0
313,579833984375;	173,0;	0,0;	0,0
313,6044616699219;	161,25;	0,0;	0,0
313,62908935546875;	156,0;	0,0;	0,0
313,6537170410156;	155,0;	0,0;	0,0
313,67828369140625;	162,75;	0,0;	0,0
313,7028503417969;	150,0;	0,0;	0,0
313,72747802734375;	151,5;	0,0;	0,0
313,75201416015625;	153,5;	0,0;	0,0
313,776611328125;	143,5;	0,0;	0,0
313,8011474609375;	156,25;	0,0;	0,0
313,8257141113281;	171,0;	0,0;	0,0
313,8502502441406;	152,25;	0,0;	0,0
313,8747863769531;	169,25;	0,0;	0,0
313,8993225097656;	167,75;	0,0;	0,0
313,923828125;	162,5;	0,0;	0,0
313,94830322265625;	175,0;	0,0;	0,0
313,97283935546875;	162,0;	0,0;	0,0
313,997314453125;	173,0;	0,0;	0,0
314,0218200683594;	165,25;	0,0;	0,0
314,0462646484375;	169,25;	0,0;	0,0
314,07073974609375;	165,5;	0,0;	0,0
314,09521484375;	167,5;	0,0;	0,0
314,11962890625;	170,5;	0,0;	0,0
314,14410400390625;	160,5;	0,0;	0,0
314,16851806640625;	183,0;	0,0;	0,0
314,19293212890625;	169,75;	0,0;	0,0
314,21734619140625;	188,25;	0,0;	0,0
314,24176025390625;	173,75;	0,0;	0,0
314,26617431640625;	193,25;	0,0;	0,0
314,2905578613281;	176,5;	0,0;	0,0
314,31494140625;	172,25;	0,0;	0,0
314,33929443359375;	207,0;	0,0;	0,0
314,3636779785156;	192,25;	0,0;	0,0
314,3880310058594;	202,0;	0,0;	0,0
314,4123840332031;	183,75;	0,0;	0,0
314,4367370605469;	185,0;	0,0;	0,0
314,4610595703125;	177,0;	0,0;	0,0
314,4853820800781;	192,5;	0,0;	0,0
314,5096740722656;	151,0;	0,0;	0,0
314,53399658203125;	164,25;	0,0;	0,0
314,5583190917969;	157,5;	0,0;	0,0
314,58258056640625;	160,5;	0,0;	0,0
314,60687255859375;	168,25;	0,0;	0,0
314,6311340332031;	159,0;	0,0;	0,0
314,6553955078125;	174,0;	0,0;	0,0
314,6796569824219;	163,75;	0,0;	0,0
314,70391845703125;	173,25;	0,0;	0,0
314,7281799316406;	170,5;	0,0;	0,0
314,75238037109375;	174,0;	0,0;	0,0
314,7765808105469;	159,0;	0,0;	0,0
314,8008117675781;	159,25;	0,0;	0,0
314,82501220703125;	155,0;	0,0;	0,0
314,8492126464844;	163,25;	0,0;	0,0
314,8734130859375;	160,5;	0,0;	0,0
314,8975830078125;	164,0;	0,0;	0,0
314,9217529296875;	146,5;	0,0;	0,0
314,9459228515625;	170,0;	0,0;	0,0
314,9700927734375;	173,5;	0,0;	0,0
314,9942321777344;	162,75;	0,0;	0,0
315,0183410644531;	169,5;	0,0;	0,0
315,0425109863281;	174,75;	0,0;	0,0
315,06658935546875;	204,5;	0,0;	0,0
315,0907287597656;	193,75;	0,0;	0,0
315,1148376464844;	197,25;	0,0;	0,0
315,138916015625;	175,75;	0,0;	0,0
315,16302490234375;	177,25;	0,0;	0,0
315,1871032714844;	163,25;	0,0;	0,0
315,2111511230469;	160,25;	0,0;	0,0
315,2352294921875;	169,5;	0,0;	0,0
315,2593078613281;	166,25;	0,0;	0,0
315,2833251953125;	159,0;	0,0;	0,0
315,3074035644531;	184,5;	0,0;	0,0
315,3314208984375;	169,0;	0,0;	0,0
315,35540771484375;	215,75;	0,0;	0,0
315,3794250488281;	216,5;	0,0;	0,0
315,4034118652344;	221,0;	0,0;	0,0
315,4274597167969;	202,75;	0,0;	0,0
315,451416015625;	159,0;	0,0;	0,0
315,4753723144531;	167,25;	0,0;	0,0
315,4993591308594;	175,25;	0,0;	0,0
315,5233154296875;	167,5;	0,0;	0,0
315,54730224609375;	160,25;	0,0;	0,0
315,57122802734375;	178,5;	0,0;	0,0
315,59515380859375;	192,5;	0,0;	0,0
315,6191101074219;	0,0;	0,0;	0,0
